Sensor	Model:	RX-102B-CX1050		
Serial	Number:	CX19801		
Data	Format:	4	(Log	Ohms/Kelvin)
SetPoint	Limit:	300	(Kelvin)	
Temperature	coefficient:	1	(Negative)	
Number	of	Breakpoints:	148	
				
No.	Units	Temperature	(K)	
				
1	1.81598	330.0502		
2	1.839801	309.540343		
3	1.864005	290.305003		
4	1.888504	272.264978		
5	1.913192	255.345989		
6	1.937981	239.478374		
7	1.962788	224.596798		
8	1.987575	210.639987		
9	2.012277	197.550476		
10	2.03684	185.274368		
11	2.06124	173.761117		
12	2.085418	162.963319		
13	2.109365	152.836513		
14	2.133059	143.339003		
15	2.156478	134.431684		
16	2.179617	126.077881		
17	2.202448	118.243196		
18	2.224985	110.895372		
19	2.247235	104.004153		
20	2.269203	97.541165		
21	2.29084	91.479799		
22	2.312191	85.795095		
23	2.333242	80.463648		
24	2.354017	75.463506		
25	2.374484	70.774081		
26	2.394682	66.376065		
27	2.414612	62.251348		
28	2.434265	58.382948		
29	2.453659	54.754937		
30	2.472782	51.352376		
31	2.491636	48.161256		
32	2.510202	45.168437		
33	2.528513	42.361597		
34	2.546554	39.729178		
35	2.564302	37.260342		
36	2.581805	34.944924		
37	2.598994	32.77339		
38	2.615955	30.736798		
39	2.632615	28.826763		
40	2.649027	27.035421		
41	2.665188	25.355396		
42	2.681086	23.779771		
43	2.69673	22.302057		
44	2.712162	20.916171		
45	2.72741	19.616406		
46	2.742404	18.397411		
47	2.7572	17.254166		
48	2.771808	16.181964		
49	2.786262	15.17639		
50	2.80055	14.233305		
51	2.814698	13.348824		
52	2.828723	12.519306		
53	2.842607	11.741336		
54	2.856381	11.01171		
55	2.870031	10.327425		
56	2.883569	9.685662		
57	2.897005	9.083779		
58	2.910326	8.519298		
59	2.923533	7.989895		
60	2.936656	7.49339		
61	2.94965	7.027739		
62	2.962532	6.591024		
63	2.975294	6.181447		
64	2.987953	5.797321		
65	3.000475	5.437066		
66	3.012853	5.099198		
67	3.025083	4.782326		
68	3.037155	4.485144		
69	3.049071	4.20643		
70	3.060834	3.945036		
71	3.072421	3.699885		
72	3.08378	3.469968		
73	3.094944	3.254338		
74	3.105911	3.052109		
75	3.116647	2.862446		
76	3.127148	2.684569		
77	3.137418	2.517745		
78	3.14745	2.361288		
79	3.157202	2.214554		
80	3.166687	2.076938		
81	3.175911	1.947874		
82	3.184843	1.82683		
83	3.193462	1.713308		
84	3.201647	1.60684		
85	3.209513	1.506988		
86	3.216102	1.413341		
87	3.224928	1.325514		
88	3.232275	1.243145		
89	3.239048	1.165894		
90	3.245898	1.093443		
91	3.253009	1.025495		
92	3.260076	0.961769		
93	3.266162	0.902003		
94	3.272593	0.845951		
95	3.278207	0.793382		
96	3.284797	0.74408		
97	3.290796	0.697842		
98	3.296724	0.654477		
99	3.302571	0.613806		
100	3.309413	0.575664		
101	3.315158	0.539891		
102	3.321509	0.506341		
103	3.327783	0.474876		
104	3.334321	0.445367		
105	3.340979	0.417691		
106	3.347026	0.391735		
107	3.353879	0.367392		
108	3.360569	0.344562		
109	3.368076	0.32315		
110	3.37424	0.303069		
111	3.382039	0.284236		
112	3.38937	0.266573		
113	3.396744	0.250008		
114	3.404813	0.234472		
115	3.412147	0.219901		
116	3.419659	0.206236		
117	3.427913	0.19342		
118	3.435829	0.181401		
119	3.444393	0.170128		
120	3.451894	0.159556		
121	3.460393	0.149641		
122	3.468561	0.140342		
123	3.477698	0.131621		
124	3.486667	0.123442		
125	3.495102	0.115771		
126	3.504764	0.108577		
127	3.51277	0.10183		
128	3.522269	0.095502		
129	3.531908	0.089567		
130	3.541262	0.084001		
131	3.550842	0.078781		
132	3.560006	0.073886		
133	3.569996	0.069294		
134	3.57918	0.064988		
135	3.589412	0.06095		
136	3.599436	0.057162		
137	3.609083	0.05361		
138	3.618161	0.050279		
139	3.629199	0.047154		
140	3.638707	0.044224		
141	3.649768	0.041476		
142	3.658905	0.038899		
143	3.670304	0.036481		
144	3.679512	0.034214		
145	3.689403	0.032088		
146	3.699994	0.030094		
147	3.708505	0.028224		
148	3.721139	0.02647		
