Sensor Model:   DT-470-CO-13-1.4H
Serial Number:  D69875
Data Format:    2      (Volts/Kelvin)
SetPoint Limit: 500.0      (Kelvin)
Temperature coefficient:  1 (Negative)
Number of Breakpoints:   109

No.   Units      Temperature (K)

  1  4.13189e-02   500.000
  2  5.01285e-02   494.500
  3  5.98868e-02   489.000
  4  7.25964e-02   482.500
  5  8.74931e-02   475.500
  6  9.09066e-02   474.000
  7  .101034       469.500
  8  .117435       462.500
  9  .139205       453.500
 10  .173884       439.500
 11  .269153       401.500
 12  .331296       376.500
 13  .390382       352.500
 14  .456228       325.500
 15  .492574       310.500
 16  .545569       288.500
 17  .597076       267.000
 18  .641140       248.500
 19  .678994       232.500
 20  .713028       218.000
 21  .745619       204.000
 22  .775607       191.000
 23  .804166       178.500
 24  .830180       167.000
 25  .854810       156.000
 26  .878055       145.500
 27  .898836       136.000
 28  .918285       127.000
 29  .936405       118.500
 30  .953209       110.500
 31  .968717       103.000
 32  .979918        97.500
 33  .988983        93.000
 34  .997941        88.500
 35  1.00678        84.000
 36  1.01551        79.500
 37  1.02411        75.000
 38  1.03258        70.500
 39  1.04094        66.000
 40  1.04917        61.500
 41  1.05766        56.800
 42  1.06622        52.000
 43  1.07503        47.000
 44  1.08585        40.800
 45  1.09046        38.200
 46  1.09411        36.200
 47  1.09712        34.600
 48  1.09967        33.300
 49  1.10212        32.100
 50  1.10449        31.000
 51  1.10678        30.000
 52  1.10899        29.100
 53  1.11111        28.300
 54  1.11310        27.600
 55  1.11498        27.000
 56  1.11674        26.500
 57  1.11831        26.100
 58  1.12011        25.700
 59  1.12168        25.400
 60  1.12350        25.100
 61  1.12569        24.800
 62  1.12841        24.500
 63  1.13183        24.200
 64  1.13605        23.900
 65  1.14111        23.600
 66  1.14895        23.200
 67  1.17546        22.000
 68  1.18960        21.300
 69  1.20635        20.400
 70  1.23209        18.950
 71  1.24709        18.100
 72  1.26515        17.100
 73  1.28181        16.200
 74  1.29705        15.400
 75  1.31083        14.700
 76  1.32408        14.050
 77  1.33676        13.450
 78  1.34994        12.850
 79  1.36254        12.300
 80  1.37566        11.750
 81  1.38938        11.200
 82  1.40244        10.700
 83  1.41612        10.200
 84  1.43053         9.700
 85  1.44419         9.250
 86  1.45854         8.800
 87  1.47366         8.350
 88  1.48952         7.900
 89  1.50978         7.350
 90  1.54235         6.500
 91  1.57338         5.700
 92  1.60199         4.940
 93  1.62087         4.420
 94  1.63471         4.020
 95  1.63732         3.940
 96  1.64426         3.730
 97  1.65345         3.440
 98  1.66258         3.140
 99  1.67047         2.870
100  1.67690         2.640
101  1.68219         2.440
102  1.68667         2.260
103  1.69038         2.100
104  1.69339         1.960
105  1.69597         1.830
106  1.69816         1.710
107  1.70016         1.590
108  1.70181         1.480
109  1.70290         1.400
