Sensor Model:   DT-470-CO-13-1.4H
Serial Number:  D69874
Data Format:    2      (Volts/Kelvin)
SetPoint Limit: 500.0      (Kelvin)
Temperature coefficient:  1 (Negative)
Number of Breakpoints:   108

No.   Units      Temperature (K)

  1  4.09856e-02   500.000
  2  4.97661e-02   494.500
  3  5.95024e-02   489.000
  4  7.21937e-02   482.500
  5  8.70809e-02   475.500
  6  9.04948e-02   474.000
  7  .100622       469.500
  8  .117028       462.500
  9  .137589       454.000
 10  .169783       441.000
 11  .273941       399.500
 12  .336138       374.500
 13  .395255       350.500
 14  .464776       322.000
 15  .501093       307.000
 16  .554051       285.000
 17  .604319       264.000
 18  .647150       246.000
 19  .683775       230.500
 20  .717769       216.000
 21  .749156       202.500
 22  .777965       190.000
 23  .805368       178.000
 24  .831375       166.500
 25  .855993       155.500
 26  .879230       145.000
 27  .900002       135.500
 28  .919439       126.500
 29  .937546       118.000
 30  .954337       110.000
 31  .969831       102.500
 32  .981020        97.000
 33  .990074        92.500
 34  .999019        88.000
 35  1.00785        83.500
 36  1.01656        79.000
 37  1.02514        74.500
 38  1.03359        70.000
 39  1.04192        65.500
 40  1.05013        61.000
 41  1.05841        56.400
 42  1.06659        51.800
 43  1.07502        47.000
 44  1.08581        40.800
 45  1.09041        38.200
 46  1.09386        36.300
 47  1.09686        34.700
 48  1.09959        33.300
 49  1.10204        32.100
 50  1.10440        31.000
 51  1.10668        30.000
 52  1.10888        29.100
 53  1.11098        28.300
 54  1.11297        27.600
 55  1.11483        27.000
 56  1.11656        26.500
 57  1.11810        26.100
 58  1.11984        25.700
 59  1.12189        25.300
 60  1.12375        25.000
 61  1.12595        24.700
 62  1.12868        24.400
 63  1.13210        24.100
 64  1.13629        23.800
 65  1.14132        23.500
 66  1.14920        23.100
 67  1.17157        22.100
 68  1.18390        21.500
 69  1.19894        20.700
 70  1.21570        19.750
 71  1.24078        18.300
 72  1.25839        17.300
 73  1.27374        16.450
 74  1.28768        15.700
 75  1.30111        15.000
 76  1.31401        14.350
 77  1.32637        13.750
 78  1.33922        13.150
 79  1.35152        12.600
 80  1.36432        12.050
 81  1.37772        11.500
 82  1.39048        11.000
 83  1.40381        10.500
 84  1.41782        10.000
 85  1.43109         9.550
 86  1.44502         9.100
 87  1.45969         8.650
 88  1.47511         8.200
 89  1.49309         7.700
 90  1.51565         7.100
 91  1.57145         5.660
 92  1.59930         4.920
 93  1.61816         4.400
 94  1.63124         4.020
 95  1.64142         3.710
 96  1.65055         3.420
 97  1.65964         3.120
 98  1.66748         2.850
 99  1.67387         2.620
100  1.67914         2.420
101  1.68359         2.240
102  1.68727         2.080
103  1.69025         1.940
104  1.69280         1.810
105  1.69496         1.690
106  1.69693         1.570
107  1.69856         1.460
108  1.69937         1.400
