Sensor Model:   PLATINE PT0
Serial Number:  PT0_0404
Data Format:    3      (Ohms vs. Kelvin)
SetPoint Limit: 325.      (Kelvin)
Temperature coefficient:  2 (Positive)
Number of Breakpoints:   200

No.   Units      Temperature (K)

  1  2.00100e-02     0.867
  2  4.00000e-02     4.092
  3  6.00000e-02     6.939
  4  8.00100e-02     9.066
  5  .100010        10.677
  6  .118000        11.826
  7  .136010        12.777
  8  .154010        13.583
  9  .172010        14.282
 10  .190010        14.897
 11  .208010        15.448
 12  .226010        15.947
 13  .244010        16.403
 14  .262000        16.824
 15  .280010        17.216
 16  .298010        17.583
 17  .316000        17.929
 18  .334000        18.256
 19  .352000        18.566
 20  .370000        18.862
 21  .388000        19.146
 22  .406010        19.418
 23  .424010        19.679
 24  .442000        19.931
 25  .460000        20.175
 26  .478010        20.411
 27  .496000        20.640
 28  .514010        20.862
 29  .532010        21.078
 30  .550010        21.288
 31  .568010        21.493
 32  .586000        21.693
 33  .604010        21.889
 34  .622010        22.080
 35  .640010        22.267
 36  .658010        22.450
 37  .676000        22.630
 38  .694000        22.806
 39  .712000        22.979
 40  .730010        23.148
 41  .748010        23.315
 42  .766010        23.479
 43  .784000        23.640
 44  .802010        23.799
 45  .820010        23.955
 46  .838010        24.109
 47  .856010        24.261
 48  .874010        24.410
 49  .892010        24.558
 50  .910010        24.703
 51  .928010        24.847
 52  .946010        24.988
 53  .964010        25.128
 54  .982010        25.266
 55  1.00001        25.402
 56  1.12858        26.332
 57  1.25714        27.196
 58  1.38572        28.005
 59  1.51429        28.769
 60  1.64287        29.494
 61  1.77143        30.185
 62  1.90000        30.848
 63  2.02858        31.484
 64  2.15714        32.098
 65  2.28572        32.692
 66  2.41429        33.267
 67  2.54286        33.825
 68  2.67143        34.369
 69  2.80000        34.899
 70  2.92857        35.416
 71  3.05714        35.922
 72  3.18572        36.416
 73  3.31429        36.902
 74  3.44286        37.378
 75  3.57143        37.845
 76  3.70000        38.305
 77  3.82857        38.757
 78  3.95714        39.202
 79  4.08571        39.641
 80  4.21429        40.074
 81  4.34286        40.501
 82  4.47144        40.922
 83  4.60000        41.339
 84  4.72857        41.750
 85  4.85714        42.157
 86  4.98571        42.560
 87  5.11429        42.959
 88  5.24287        43.353
 89  5.37143        43.744
 90  5.50000        44.132
 91  5.62857        44.516
 92  5.75714        44.897
 93  5.88571        45.275
 94  6.01429        45.650
 95  6.14286        46.022
 96  6.27144        46.392
 97  6.40001        46.759
 98  6.52857        47.123
 99  6.65714        47.485
100  6.78571        47.845
101  6.91430        48.203
102  7.04286        48.559
103  7.17143        48.913
104  7.30000        49.265
105  7.42857        49.615
106  7.55714        49.963
107  7.68571        50.310
108  7.81429        50.655
109  7.94287        50.998
110  8.07144        51.340
111  8.20000        51.680
112  8.32857        52.019
113  8.45715        52.357
114  8.58572        52.693
115  8.71429        53.028
116  8.84286        53.362
117  8.97144        53.695
118  9.10000        54.026
119  9.22857        54.357
120  9.35715        54.686
121  9.48572        55.014
122  9.61429        55.342
123  9.74286        55.668
124  9.87144        55.993
125  10.0000        56.318
126  11.2858        59.518
127  12.5715        62.654
128  13.8572        65.741
129  15.1429        68.791
130  16.4286        71.815
131  17.7144        74.818
132  19.0001        77.806
133  20.2857        80.783
134  21.5715        83.752
135  22.8572        86.717
136  24.1430        89.680
137  25.4286        92.642
138  26.7144        95.604
139  28.0001        98.569
140  29.2857       101.537
141  30.5715       104.508
142  31.8572       107.484
143  33.1430       110.465
144  34.4287       113.452
145  35.7144       116.444
146  37.0001       119.443
147  38.2858       122.448
148  39.5714       125.459
149  40.8571       128.477
150  42.1430       131.502
151  43.4287       134.535
152  44.7144       137.574
153  46.0001       140.621
154  47.2858       143.674
155  48.5714       146.735
156  49.8571       149.803
157  51.1430       152.876
158  52.4287       155.958
159  53.7144       159.045
160  55.0001       162.140
161  56.2858       165.240
162  57.5714       168.349
163  58.8571       171.462
164  60.1430       174.582
165  61.4287       177.706
166  62.7144       180.839
167  64.0001       183.975
168  65.2857       187.117
169  66.5714       190.265
170  67.8572       193.419
171  69.1429       196.577
172  70.4287       199.740
173  71.7144       202.909
174  73.0001       206.081
175  74.2857       209.256
176  75.5714       212.438
177  76.8572       215.623
178  78.1429       218.811
179  79.4287       222.003
180  80.7144       225.199
181  82.0001       228.399
182  83.2857       231.600
183  84.5714       234.806
184  85.8572       238.014
185  87.1429       241.224
186  88.4287       244.438
187  89.7144       247.653
188  91.0001       250.870
189  92.2857       254.090
190  93.5714       257.311
191  94.8572       260.533
192  96.1429       263.757
193  97.4287       266.983
194  98.7144       270.209
195  100.001       273.436
196  105.001       285.992
197  110.001       298.550
198  115.001       311.098
199  120.001       323.630
200  125.001       336.135
