Sensor Model:   RF-100U-AA-4L
Serial Number:  R10409
Data Format:    3      (Ohms/Kelvin)
SetPoint Limit: 325.      (Kelvin)
Temperature coefficient:  2 (Positive)
Number of Breakpoints:   132

No.   Units      Temperature (K)

  1  8.63666         4.620
  2  8.64115         4.600
  3  8.64784         4.640
  4  8.66048         4.580
  5  8.67378         4.660
  6  8.69184         4.560
  7  8.71322         4.680
  8  8.78962         4.520
  9  8.82545         4.720
 10  9.00578         4.460
 11  9.06505         4.780
 12  9.62290         4.320
 13  9.83684         4.260
 14  9.87889         4.000
 15  9.93502         4.220
 16  9.96266         4.080
 17  9.96790         4.200
 18  9.97968         4.100
 19  9.98859         4.180
 20  9.99252         4.120
 21  9.99855         4.160
 22  9.99933         4.140
 23  10.0865         4.980
 24  10.3150         5.040
 25  10.3537         5.700
 26  10.3544         5.680
 27  10.3544         5.720
 28  10.3565         5.740
 29  10.3565         5.660
 30  10.3598         5.760
 31  10.3599         5.640
 32  10.3697         5.800
 33  10.3723         5.600
 34  10.3909         5.560
 35  10.3922         5.860
 36  10.4274         5.080
 37  10.4336         5.500
 38  10.4338         5.940
 39  10.5101         5.420
 40  10.5113         5.120
 41  10.5386         6.100
 42  10.5676         5.160
 43  10.5773         5.340
 44  10.5858         5.180
 45  10.5994         5.200
 46  10.6001         5.300
 47  10.6075         5.280
 48  10.6076         6.200
 49  10.6080         5.220
 50  10.6116         5.260
 51  10.6119         5.240
 52  10.6660         6.300
 53  10.7127         6.400
 54  10.7497         6.500
 55  10.7789         6.600
 56  10.8022         6.700
 57  10.8216         6.800
 58  10.8650         7.050
 59  10.8965         7.200
 60  10.9329         7.350
 61  11.0007         7.600
 62  11.1172         8.000
 63  11.1851         8.250
 64  11.2598         8.550
 65  11.3640         9.000
 66  11.5555         9.850
 67  11.6639        10.350
 68  11.7774        10.900
 69  11.8961        11.500
 70  12.0101        12.100
 71  12.1194        12.700
 72  12.2244        13.300
 73  12.3255        13.900
 74  12.4229        14.500
 75  12.5247        15.150
 76  12.6228        15.800
 77  12.7176        16.450
 78  12.8164        17.150
 79  12.9120        17.850
 80  13.0044        18.550
 81  13.1197        19.450
 82  13.2381        20.400
 83  13.3934        21.700
 84  13.5887        23.400
 85  14.1028        28.000
 86  14.3321        30.000
 87  14.5338        31.700
 88  14.7188        33.200
 89  14.8983        34.600
 90  15.0853        36.000
 91  15.2809        37.400
 92  15.4857        38.800
 93  15.6692        40.000
 94  15.8599        41.200
 95  16.0917        42.600
 96  16.3345        44.000
 97  16.5879        45.400
 98  16.8520        46.800
 99  17.1269        48.200
100  17.4126        49.600
101  17.7089        51.000
102  18.0603        52.600
103  18.4258        54.200
104  18.8045        55.800
105  19.1965        57.400
106  19.6518        59.200
107  20.1229        61.000
108  20.6621        63.000
109  21.2184        65.000
110  21.7900        67.000
111  22.3764        69.000
112  22.9766        71.000
113  23.7443        73.500
114  24.5310        76.000
115  25.3335        78.500
116  26.3154        81.500
117  27.4843        85.000
118  28.6732        88.500
119  30.0521        92.500
120  31.8007        97.500
121  34.6320       105.500
122  43.2030       129.500
123  47.8091       142.500
124  52.0202       154.500
125  56.1896       166.500
126  60.4903       179.000
127  65.0920       192.500
128  70.1614       207.500
129  76.0312       225.000
130  83.6977       248.000
131  105.768       314.500
132  109.267       325.000
