Sensor Model:   RF-100U-AA-4L
Serial Number:  R10410
Data Format:    3      (Ohms/Kelvin)
SetPoint Limit: 325.      (Kelvin)
Temperature coefficient:  2 (Positive)
Number of Breakpoints:   80

No.   Units      Temperature (K)

  1  12.7415         4.000
  2  12.9408         4.520
  3  13.1160         5.000
  4  13.2827         5.480
  5  13.4415         5.960
  6  13.5961         6.450
  7  13.7467         6.950
  8  13.8904         7.450
  9  14.0280         7.950
 10  14.1597         8.450
 11  14.2860         8.950
 12  14.4072         9.450
 13  14.5350        10.000
 14  14.6572        10.550
 15  14.7745        11.100
 16  14.8870        11.650
 17  14.9952        12.200
 18  15.1087        12.800
 19  15.2175        13.400
 20  15.3224        14.000
 21  15.4235        14.600
 22  15.5291        15.250
 23  15.6310        15.900
 24  15.7295        16.550
 25  15.8321        17.250
 26  15.9315        17.950
 27  16.0345        18.700
 28  16.1545        19.600
 29  16.2710        20.500
 30  16.4457        21.900
 31  16.6980        24.000
 32  17.0407        26.900
 33  17.2829        28.900
 34  17.4830        30.500
 35  17.6777        32.000
 36  17.8672        33.400
 37  18.0507        34.700
 38  18.2423        36.000
 39  18.4430        37.300
 40  18.6530        38.600
 41  18.8731        39.900
 42  19.1035        41.200
 43  19.3631        42.600
 44  19.6354        44.000
 45  19.9201        45.400
 46  20.2174        46.800
 47  20.5272        48.200
 48  20.8497        49.600
 49  21.1849        51.000
 50  21.5326        52.400
 51  21.9446        54.000
 52  22.3727        55.600
 53  22.8155        57.200
 54  23.3305        59.000
 55  23.7740        60.500
 56  24.3812        62.500
 57  25.0093        64.500
 58  25.6559        66.500
 59  26.3204        68.500
 60  27.0009        70.500
 61  27.8712        73.000
 62  28.7638        75.500
 63  29.6754        78.000
 64  30.7912        81.000
 65  31.9292        84.000
 66  33.2790        87.500
 67  34.8478        91.500
 68  36.6375        96.000
 69  39.4561       103.000
 70  51.0644       131.500
 71  56.1121       144.000
 72  60.9116       156.000
 73  65.6624       168.000
 74  70.5637       180.500
 75  75.8090       194.000
 76  81.5890       209.000
 77  88.4747       227.000
 78  97.5989       251.000
 79  120.133       310.500
 80  125.642       325.000
