Sensor Model:   RF-100U-AA-4L
Serial Number:  R10402
Data Format:    3      (Ohms/Kelvin)
SetPoint Limit: 325.      (Kelvin)
Temperature coefficient:  2 (Positive)
Number of Breakpoints:   79

No.   Units      Temperature (K)

  1  11.0405         4.000
  2  11.2462         4.520
  3  11.4347         5.020
  4  11.6141         5.520
  5  11.7783         6.000
  6  11.9417         6.500
  7  12.0976         7.000
  8  12.2465         7.500
  9  12.3889         8.000
 10  12.5253         8.500
 11  12.6559         9.000
 12  12.7813         9.500
 13  12.9137        10.050
 14  13.0404        10.600
 15  13.1621        11.150
 16  13.2790        11.700
 17  13.3915        12.250
 18  13.5097        12.850
 19  13.6232        13.450
 20  13.7326        14.050
 21  13.8381        14.650
 22  13.9484        15.300
 23  14.0548        15.950
 24  14.1575        16.600
 25  14.2646        17.300
 26  14.3681        18.000
 27  14.4750        18.750
 28  14.6069        19.700
 29  14.7414        20.700
 30  14.9215        22.100
 31  15.1442        23.900
 32  15.6748        28.300
 33  15.9217        30.300
 34  16.1384        32.000
 35  16.3367        33.500
 36  16.5288        34.900
 37  16.7285        36.300
 38  16.9370        37.700
 39  17.1547        39.100
 40  17.3659        40.400
 41  17.6030        41.800
 42  17.8507        43.200
 43  18.1090        44.600
 44  18.3780        46.000
 45  18.6576        47.400
 46  18.9478        48.800
 47  19.2485        50.200
 48  19.6047        51.800
 49  19.9751        53.400
 50  20.3587        55.000
 51  20.7557        56.600
 52  21.2172        58.400
 53  21.6411        60.000
 54  22.1858        62.000
 55  22.7481        64.000
 56  23.3258        66.000
 57  23.9182        68.000
 58  24.5249        70.000
 59  25.3013        72.500
 60  26.0977        75.000
 61  26.9101        77.500
 62  27.9039        80.500
 63  28.9170        83.500
 64  30.1182        87.000
 65  31.5138        91.000
 66  33.1058        95.500
 67  35.4333       102.000
 68  43.2218       123.500
 69  46.8419       133.500
 70  51.3254       146.000
 71  55.5875       158.000
 72  59.8072       170.000
 73  64.1606       182.500
 74  68.8197       196.000
 75  73.9537       211.000
 76  80.0698       229.000
 77  88.1754       253.000
 78  107.688       311.000
 79  112.414       325.000
