Sensor Model:   RF-100U-AA-4L
Serial Number:  R10401
Data Format:    3      (Ohms/Kelvin)
SetPoint Limit: 325.      (Kelvin)
Temperature coefficient:  2 (Positive)
Number of Breakpoints:   79

No.   Units      Temperature (K)

  1  11.1270         4.000
  2  11.3246         4.500
  3  11.5126         5.000
  4  11.6917         5.500
  5  11.8625         6.000
  6  12.0256         6.500
  7  12.1814         7.000
  8  12.3302         7.500
  9  12.4726         8.000
 10  12.6089         8.500
 11  12.7395         9.000
 12  12.8647         9.500
 13  12.9968        10.050
 14  13.1232        10.600
 15  13.2445        11.150
 16  13.3611        11.700
 17  13.4732        12.250
 18  13.5910        12.850
 19  13.7042        13.450
 20  13.8134        14.050
 21  13.9274        14.700
 22  14.0372        15.350
 23  14.1432        16.000
 24  14.2535        16.700
 25  14.3601        17.400
 26  14.4559        18.050
 27  14.5624        18.800
 28  14.6938        19.750
 29  14.8343        20.800
 30  15.0133        22.200
 31  15.2350        24.000
 32  15.7634        28.400
 33  16.0094        30.400
 34  16.2252        32.100
 35  16.4358        33.700
 36  16.6413        35.200
 37  16.8411        36.600
 38  17.0493        38.000
 39  17.2667        39.400
 40  17.4939        40.800
 41  17.7312        42.200
 42  17.9787        43.600
 43  18.2366        45.000
 44  18.5049        46.400
 45  18.7836        47.800
 46  19.0726        49.200
 47  19.4152        50.800
 48  19.7716        52.400
 49  20.1410        54.000
 50  20.5235        55.600
 51  20.9686        57.400
 52  21.4296        59.200
 53  21.9050        61.000
 54  22.4490        63.000
 55  23.0091        65.000
 56  23.5838        67.000
 57  24.1725        69.000
 58  24.9264        71.500
 59  25.7006        74.000
 60  26.4913        76.500
 61  27.4592        79.500
 62  28.4467        82.500
 63  29.6182        86.000
 64  30.9803        90.000
 65  32.5354        94.500
 66  34.8108       101.000
 67  39.9476       115.500
 68  44.0348       127.000
 69  48.6182       140.000
 70  52.8094       152.000
 71  56.9586       164.000
 72  61.0665       176.000
 73  65.4753       189.000
 74  70.3484       203.500
 75  75.8492       220.000
 76  82.4719       240.000
 77  92.3541       270.000
 78  104.681       307.500
 79  110.450       325.000
