Sensor Model:   RF-100U-AA-4L
Serial Number:  R10411
Data Format:    3      (Ohms/Kelvin)
SetPoint Limit: 325.      (Kelvin)
Temperature coefficient:  2 (Positive)
Number of Breakpoints:   80

No.   Units      Temperature (K)

  1  11.3152         4.000
  2  11.5075         4.500
  3  11.6981         5.020
  4  11.8872         5.560
  5  12.0516         6.050
  6  12.2129         6.550
  7  12.3678         7.050
  8  12.5163         7.550
  9  12.6589         8.050
 10  12.7956         8.550
 11  12.9268         9.050
 12  13.0528         9.550
 13  13.1857        10.100
 14  13.3130        10.650
 15  13.4351        11.200
 16  13.5523        11.750
 17  13.6651        12.300
 18  13.7836        12.900
 19  13.8974        13.500
 20  14.0071        14.100
 21  14.1217        14.750
 22  14.2320        15.400
 23  14.3386        16.050
 24  14.4496        16.750
 25  14.5568        17.450
 26  14.6533        18.100
 27  14.7609        18.850
 28  14.8866        19.750
 29  15.0416        20.900
 30  15.2350        22.400
 31  15.5088        24.600
 32  15.8519        27.400
 33  16.1150        29.500
 34  16.3349        31.200
 35  16.5360        32.700
 36  16.7309        34.100
 37  16.9338        35.500
 38  17.1457        36.900
 39  17.3676        38.300
 40  17.5831        39.600
 41  17.8257        41.000
 42  18.0798        42.400
 43  18.3456        43.800
 44  18.6231        45.200
 45  18.9125        46.600
 46  19.2137        48.000
 47  19.5267        49.400
 48  19.8514        50.800
 49  20.2363        52.400
 50  20.6368        54.000
 51  21.0518        55.600
 52  21.4812        57.200
 53  21.9805        59.000
 54  22.4104        60.500
 55  22.9990        62.500
 56  23.6076        64.500
 57  24.2333        66.500
 58  24.8758        68.500
 59  25.5337        70.500
 60  26.3754        73.000
 61  27.2384        75.500
 62  28.1190        78.000
 63  29.1967        81.000
 64  30.2962        84.000
 65  31.6002        87.500
 66  33.1154        91.500
 67  34.8442        96.000
 68  37.3720       102.500
 69  45.2418       122.500
 70  49.1796       132.500
 71  54.2526       145.500
 72  58.8896       157.500
 73  63.4816       169.500
 74  68.2196       182.000
 75  73.2917       195.500
 76  79.0685       211.000
 77  85.9146       229.500
 78  95.1132       254.500
 79  114.731       308.000
 80  120.986       325.000
