Sensor Model:   RF-100U-AA-4L
Serial Number:  R10403
Data Format:    3      (Ohms/Kelvin)
SetPoint Limit: 325.      (Kelvin)
Temperature coefficient:  2 (Positive)
Number of Breakpoints:   78

No.   Units      Temperature (K)

  1  10.8280         4.000
  2  11.0464         4.540
  3  11.2472         5.060
  4  11.4317         5.560
  5  11.5868         6.000
  6  11.7391         6.450
  7  11.9010         6.950
  8  12.0552         7.450
  9  12.2026         7.950
 10  12.3436         8.450
 11  12.4788         8.950
 12  12.6213         9.500
 13  12.7576        10.050
 14  12.8884        10.600
 15  13.0139        11.150
 16  13.1345        11.700
 17  13.2506        12.250
 18  13.3726        12.850
 19  13.4897        13.450
 20  13.6026        14.050
 21  13.7114        14.650
 22  13.8251        15.300
 23  13.9348        15.950
 24  14.0407        16.600
 25  14.1511        17.300
 26  14.2579        18.000
 27  14.3682        18.750
 28  14.5043        19.700
 29  14.6430        20.700
 30  14.8288        22.100
 31  15.0581        23.900
 32  15.6407        28.600
 33  15.8948        30.600
 34  16.1178        32.300
 35  16.3355        33.900
 36  16.5481        35.400
 37  16.7547        36.800
 38  16.9700        38.200
 39  17.1948        39.600
 40  17.4297        41.000
 41  17.6748        42.400
 42  17.9305        43.800
 43  18.1968        45.200
 44  18.4738        46.600
 45  18.7613        48.000
 46  19.0594        49.400
 47  19.4126        51.000
 48  19.7798        52.600
 49  20.1602        54.200
 50  20.5540        55.800
 51  21.0121        57.600
 52  21.4864        59.400
 53  22.0580        61.500
 54  22.6207        63.500
 55  23.1988        65.500
 56  23.7919        67.500
 57  24.3991        69.500
 58  25.1761        72.000
 59  25.9734        74.500
 60  26.7874        77.000
 61  27.7834        80.000
 62  28.9691        83.500
 63  30.1770        87.000
 64  31.5787        91.000
 65  33.1777        95.500
 66  35.6948       102.500
 67  45.6933       130.000
 68  50.1999       142.500
 69  54.3066       154.000
 70  58.3734       165.500
 71  62.5757       177.500
 72  67.0853       190.500
 73  72.0708       205.000
 74  77.6993       221.500
 75  84.6463       242.000
 76  95.2649       273.500
 77  106.200       306.000
 78  112.612       325.000
