Sensor Model:   RF-100U-AA-4L
Serial Number:  R10412
Data Format:    3      (Ohms/Kelvin)
SetPoint Limit: 325.      (Kelvin)
Temperature coefficient:  2 (Positive)
Number of Breakpoints:   79

No.   Units      Temperature (K)

  1  10.9667         4.000
  2  11.1639         4.520
  3  11.3372         5.000
  4  11.5023         5.480
  5  11.6663         5.980
  6  11.8286         6.500
  7  11.9774         7.000
  8  12.1198         7.500
  9  12.2559         8.000
 10  12.3863         8.500
 11  12.5113         9.000
 12  12.6431         9.550
 13  12.7691        10.100
 14  12.8900        10.650
 15  13.0060        11.200
 16  13.1175        11.750
 17  13.2247        12.300
 18  13.3374        12.900
 19  13.4456        13.500
 20  13.5499        14.100
 21  13.6505        14.700
 22  13.7556        15.350
 23  13.8569        16.000
 24  13.9549        16.650
 25  14.0570        17.350
 26  14.1557        18.050
 27  14.2580        18.800
 28  14.3775        19.700
 29  14.5062        20.700
 30  14.6789        22.100
 31  14.9045        24.000
 32  15.3350        27.700
 33  15.5734        29.700
 34  15.7825        31.400
 35  15.9740        32.900
 36  16.1598        34.300
 37  16.3533        35.700
 38  16.5554        37.100
 39  16.7670        38.500
 40  16.9885        39.900
 41  17.2039        41.200
 42  17.4458        42.600
 43  17.6990        44.000
 44  17.9632        45.400
 45  18.2387        46.800
 46  18.5253        48.200
 47  18.8230        49.600
 48  19.1319        51.000
 49  19.4981        52.600
 50  19.8789        54.200
 51  20.2733        55.800
 52  20.6814        57.400
 53  21.1555        59.200
 54  21.6459        61.000
 55  22.2074        63.000
 56  22.7867        65.000
 57  23.3822        67.000
 58  23.9929        69.000
 59  24.6179        71.000
 60  25.4169        73.500
 61  26.2358        76.000
 62  27.0715        78.500
 63  28.0935        81.500
 64  29.3094        85.000
 65  30.5473        88.500
 66  31.9827        92.500
 67  33.8021        97.500
 68  36.7495       105.500
 69  45.6744       129.500
 70  50.4707       142.500
 71  54.8559       154.500
 72  59.1983       166.500
 73  63.6779       179.000
 74  68.4711       192.500
 75  73.7516       207.500
 76  79.8667       225.000
 77  87.6811       247.500
 78  110.503       313.500
 79  114.494       325.000
