Sensor Model:   RF-100U-AA-4L
Serial Number:  R10413
Data Format:    3      (Ohms/Kelvin)
SetPoint Limit: 325.      (Kelvin)
Temperature coefficient:  2 (Positive)
Number of Breakpoints:   78

No.   Units      Temperature (K)

  1  11.5938         4.000
  2  11.8402         4.640
  3  12.0797         5.280
  4  12.2661         5.800
  5  12.4369         6.300
  6  12.5993         6.800
  7  12.7541         7.300
  8  12.9021         7.800
  9  13.0439         8.300
 10  13.1800         8.800
 11  13.3236         9.350
 12  13.4609         9.900
 13  13.5925        10.450
 14  13.7186        11.000
 15  13.8397        11.550
 16  13.9561        12.100
 17  14.0782        12.700
 18  14.1954        13.300
 19  14.3084        13.900
 20  14.4173        14.500
 21  14.5312        15.150
 22  14.6410        15.800
 23  14.7471        16.450
 24  14.8576        17.150
 25  14.9643        17.850
 26  15.0675        18.550
 27  15.1963        19.450
 28  15.3286        20.400
 29  15.5021        21.700
 30  15.7201        23.400
 31  16.3301        28.300
 32  16.5727        30.200
 33  16.7836        31.800
 34  16.9885        33.300
 35  17.1873        34.700
 36  17.3943        36.100
 37  17.6105        37.500
 38  17.8366        38.900
 39  18.0562        40.200
 40  18.3032        41.600
 41  18.5617        43.000
 42  18.8317        44.400
 43  19.1133        45.800
 44  19.4066        47.200
 45  19.7115        48.600
 46  20.0280        50.000
 47  20.4034        51.600
 48  20.7943        53.200
 49  21.1996        54.800
 50  21.6194        56.400
 51  22.1080        58.200
 52  22.6140        60.000
 53  23.1945        62.000
 54  23.7939        64.000
 55  24.4106        66.000
 56  25.0437        68.000
 57  25.6924        70.000
 58  26.5230        72.500
 59  27.3756        75.000
 60  28.2465        77.500
 61  29.3130        80.500
 62  30.4014        83.500
 63  31.6920        87.000
 64  33.1918        91.000
 65  34.9052        95.500
 66  37.4117       102.000
 67  42.8755       116.000
 68  47.7710       128.500
 69  53.0161       142.000
 70  57.6342       154.000
 71  62.2076       166.000
 72  66.9250       178.500
 73  71.9724       192.000
 74  77.5329       207.000
 75  83.9720       224.500
 76  92.0168       246.500
 77  116.583       314.000
 78  120.600       325.000
