Sensor Model:   RX-1000-BF0.007
Serial Number:  RX03310
Data Format:    4      (Log Ohms/Kelvin)
SetPoint Limit: 100.0      (Kelvin)
Temperature coefficient:  1 (Negative)
Number of Breakpoints:   198

No.   Units      Temperature (K)

 
1	3.03003	102
2	3.03075	99
3	3.03141	96.5
4	3.03212	94
5	3.03288	91.5
6	3.0337	89
7	3.03458	86.5
8	3.03552	84
9	3.03653	81.5
10	3.03761	79
11	3.03876	76.5
12	3.03998	74
13	3.0413	71.5
14	3.0427	69
15	3.04388	67
16	3.04513	65
17	3.04645	63
18	3.04783	61
19	3.04929	59
20	3.05083	57
21	3.05245	55
22	3.05416	53
23	3.05596	51
24	3.05787	49
25	3.05967	47.2
26	3.06157	45.4
27	3.06357	43.6
28	3.06567	41.8
29	3.06802	39.9
30	3.07024	38.2
31	3.07257	36.5
32	3.07489	34.9
33	3.07732	33.3
34	3.07989	31.7
35	3.08244	30.2
36	3.08512	28.7
37	3.08795	27.2
38	3.09074	25.8
39	3.09348	24.5
40	3.09636	23.2
41	3.09941	21.9
42	3.10239	20.7
43	3.10474	19.8
44	3.10664	19.1
45	3.1086	18.4
46	3.11064	17.7
47	3.1126	17.05
48	3.11464	16.4
49	3.11675	15.75
50	3.11878	15.15
51	3.12088	14.55
52	3.12307	13.95
53	3.12515	13.4
54	3.12731	12.85
55	3.12957	12.3
56	3.13171	11.8
57	3.13393	11.3
58	3.13625	10.8
59	3.13867	10.3
60	3.14095	9.85
61	3.14334	9.4
62	3.14584	8.95
63	3.14817	8.55
64	3.15061	8.15
65	3.15317	7.75
66	3.15587	7.35
67	3.15872	6.95
68	3.16137	6.6
69	3.16416	6.25
70	3.1673	5.88
71	3.17038	5.54
72	3.17347	5.22
73	3.17657	4.92
74	3.17989	4.62
75	3.18346	4.32
76	3.18707	4.04
77	3.18997	3.83
78	3.19261	3.65
79	3.19542	3.47
80	3.19841	3.29
81	3.20143	3.12
82	3.20466	2.95
83	3.20792	2.79
84	3.21143	2.63
85	3.21498	2.48
86	3.21882	2.33
87	3.22271	2.19
88	3.22695	2.05
89	3.23124	1.92
90	3.23595	1.79
91	3.24072	1.67
92	3.24553	1.56
93	3.25083	1.45
94	3.25672	1.34
95	3.26268	1.24
96	3.26659	1.18
97	3.26971	1.135
98	3.27301	1.09
99	3.2765	1.045
100	3.28021	1
101	3.28371	0.96
102	3.28742	0.92
103	3.29136	0.88
104	3.29557	0.84
105	3.30006	0.8
106	3.30426	0.765
107	3.30874	0.73
108	3.31352	0.695
109	3.31866	0.66
110	3.32419	0.625
111	3.32928	0.595
112	3.33475	0.565
113	3.34063	0.535
114	3.34699	0.505
115	3.35223	0.482
116	3.35707	0.462
117	3.36221	0.442
118	3.36768	0.422
119	3.37291	0.404
120	3.38041	0.38
121	3.38716	0.36
122	3.39444	0.34
123	3.40232	0.32
124	3.41089	0.3
125	3.42026	0.28
126	3.43056	0.26
127	3.44196	0.24
128	3.45467	0.22
129	3.46899	0.2
130	3.47286	0.195
131	3.47686	0.19
132	3.48099	0.185
133	3.48528	0.18
134	3.48971	0.175
135	3.49431	0.17
136	3.49909	0.165
137	3.50405	0.16
138	3.50921	0.155
139	3.51458	0.15
140	3.52018	0.145
141	3.52603	0.14
142	3.53215	0.135
143	3.53855	0.13
144	3.54526	0.125
145	3.55231	0.12
146	3.55973	0.115
147	3.56755	0.11
148	3.57581	0.105
149	3.58456	0.1
150	3.59385	0.095
151	3.60374	0.09
152	3.6143	0.085
153	3.62561	0.08
154	3.63778	0.075
155	3.65092	0.07
156	3.66517	0.065
157	3.68072	0.06
158	3.69778	0.055
159	3.71665	0.05
160	3.72477	0.048
161	3.72898	0.047
162	3.73767	0.045
163	3.74218	0.044
164	3.75152	0.042
165	3.76134	0.04
166	3.76645	0.039
167	3.77169	0.038
168	3.77708	0.037
169	3.78262	0.036
170	3.78831	0.035
171	3.79418	0.034
172	3.80022	0.033
173	3.80644	0.032
174	3.81287	0.031
175	3.8195	0.03
176	3.82635	0.029
177	3.83343	0.028
178	3.84077	0.027
179	3.84836	0.026
180	3.85624	0.025
181	3.86441	0.024
182	3.87291	0.023
183	3.88175	0.022
184	3.89096	0.021
185	3.90057	0.02
186	3.91061	0.019
187	3.9211	0.018
188	3.9321	0.017
189	3.94364	0.016
190	3.95577	0.015
191	3.96854	0.014
192	3.98201	0.013
193	3.99624	0.012
194	4.01128	0.011
195	4.02721	0.01
196	4.04406	0.009
197	4.06187	0.008
198	4.08059	0.007
