Sensor Model:   RX-1000-BF0.007
Serial Number:  rx03312
Data Format:    4      (Log Ohms/Kelvin)
SetPoint Limit: 100.0      (Kelvin)
Temperature coefficient:  1 (Negative)
Number of Breakpoints:   198

No.   Units      Temperature (K)

 
1	3.0335	102
2	3.03401	99
3	3.03449	96.5
4	3.03503	94
5	3.03563	91.5
6	3.03629	89
7	3.03702	86.5
8	3.03782	84
9	3.03869	81.5
10	3.03964	79
11	3.04067	76.5
12	3.04178	74
13	3.04298	71.5
14	3.04428	69
15	3.04539	67
16	3.04657	65
17	3.04782	63
18	3.04914	61
19	3.05054	59
20	3.05203	57
21	3.0536	55
22	3.05527	53
23	3.05703	51
24	3.05891	49
25	3.06068	47.2
26	3.06256	45.4
27	3.06454	43.6
28	3.06662	41.8
29	3.06895	39.9
30	3.07115	38.2
31	3.07347	36.5
32	3.07578	34.9
33	3.0782	33.3
34	3.08076	31.7
35	3.08329	30.2
36	3.08595	28.7
37	3.08876	27.2
38	3.09153	25.8
39	3.09423	24.5
40	3.09708	23.2
41	3.10009	21.9
42	3.10301	20.7
43	3.10531	19.8
44	3.10717	19.1
45	3.10909	18.4
46	3.11108	17.7
47	3.11298	17.05
48	3.11496	16.4
49	3.11701	15.75
50	3.11896	15.15
51	3.12099	14.55
52	3.12309	13.95
53	3.12509	13.4
54	3.12716	12.85
55	3.12931	12.3
56	3.13134	11.8
57	3.13345	11.3
58	3.13564	10.8
59	3.13793	10.3
60	3.14007	9.85
61	3.14231	9.4
62	3.14465	8.95
63	3.14682	8.55
64	3.14909	8.15
65	3.15146	7.75
66	3.15396	7.35
67	3.15659	6.95
68	3.15902	6.6
69	3.16158	6.25
70	3.16445	5.88
71	3.16726	5.54
72	3.17008	5.22
73	3.17289	4.92
74	3.1759	4.62
75	3.17913	4.32
76	3.18238	4.04
77	3.185	3.83
78	3.18738	3.65
79	3.18991	3.47
80	3.1926	3.29
81	3.19531	3.12
82	3.19821	2.95
83	3.20114	2.79
84	3.20429	2.63
85	3.20748	2.48
86	3.21093	2.33
87	3.21442	2.19
88	3.21822	2.05
89	3.22207	1.92
90	3.22629	1.79
91	3.23058	1.67
92	3.2349	1.56
93	3.23966	1.45
94	3.24494	1.34
95	3.2503	1.24
96	3.25381	1.18
97	3.25662	1.135
98	3.25958	1.09
99	3.26272	1.045
100	3.26605	1
101	3.26919	0.96
102	3.27253	0.92
103	3.27607	0.88
104	3.27984	0.84
105	3.28387	0.8
106	3.28764	0.765
107	3.29166	0.73
108	3.29595	0.695
109	3.30055	0.66
110	3.3055	0.625
111	3.31006	0.595
112	3.31495	0.565
113	3.3202	0.535
114	3.32588	0.505
115	3.33055	0.482
116	3.33487	0.462
117	3.33945	0.442
118	3.34431	0.422
119	3.34896	0.404
120	3.35561	0.38
121	3.3616	0.36
122	3.36804	0.34
123	3.37501	0.32
124	3.38257	0.3
125	3.39082	0.28
126	3.39988	0.26
127	3.40987	0.24
128	3.421	0.22
129	3.43348	0.2
130	3.43685	0.195
131	3.44032	0.19
132	3.44392	0.185
133	3.44763	0.18
134	3.45148	0.175
135	3.45546	0.17
136	3.4596	0.165
137	3.46388	0.16
138	3.46834	0.155
139	3.47297	0.15
140	3.4778	0.145
141	3.48283	0.14
142	3.48809	0.135
143	3.49358	0.13
144	3.49933	0.125
145	3.50536	0.12
146	3.5117	0.115
147	3.51837	0.11
148	3.5254	0.105
149	3.53284	0.1
150	3.54072	0.095
151	3.54909	0.09
152	3.55801	0.085
153	3.56755	0.08
154	3.57778	0.075
155	3.5888	0.07
156	3.60074	0.065
157	3.61372	0.06
158	3.62793	0.055
159	3.64359	0.05
160	3.65033	0.048
161	3.65381	0.047
162	3.661	0.045
163	3.66473	0.044
164	3.67245	0.042
165	3.68055	0.04
166	3.68476	0.039
167	3.68908	0.038
168	3.69352	0.037
169	3.69808	0.036
170	3.70277	0.035
171	3.7076	0.034
172	3.71257	0.033
173	3.71768	0.032
174	3.72296	0.031
175	3.72841	0.03
176	3.73404	0.029
177	3.73986	0.028
178	3.74589	0.027
179	3.75213	0.026
180	3.75861	0.025
181	3.76533	0.024
182	3.77232	0.023
183	3.7796	0.022
184	3.78719	0.021
185	3.79512	0.02
186	3.80342	0.019
187	3.81212	0.018
188	3.82125	0.017
189	3.83087	0.016
190	3.84103	0.015
191	3.85178	0.014
192	3.86319	0.013
193	3.87536	0.012
194	3.88838	0.011
195	3.90237	0.01
196	3.91748	0.009
197	3.93392	0.008
198	3.95193	0.007
 
