Sensor Model:   RX-202A-AA-0.05B
Serial Number:  U02272
Data Format:    4      (Log Ohms/Kelvin)
SetPoint Limit: 40.0      (Kelvin)
Temperature coefficient:  1 (Negative)
Number of Breakpoints:   130

No.   Units      Temperature (K)

  1  3.34813        40.000
  2  3.34933        38.600
  3  3.35050        37.300
  4  3.35172        36.000
  5  3.35300        34.700
  6  3.35425        33.500
  7  3.35555        32.300
  8  3.35692        31.100
  9  3.35836        29.900
 10  3.35988        28.700
 11  3.36135        27.600
 12  3.36290        26.500
 13  3.36453        25.400
 14  3.36627        24.300
 15  3.36793        23.300
 16  3.36969        22.300
 17  3.37156        21.300
 18  3.37355        20.300
 19  3.37502        19.600
 20  3.37633        19.000
 21  3.37770        18.400
 22  3.37913        17.800
 23  3.38049        17.250
 24  3.38192        16.700
 25  3.38340        16.150
 26  3.38495        15.600
 27  3.38657        15.050
 28  3.38812        14.550
 29  3.38973        14.050
 30  3.39142        13.550
 31  3.39320        13.050
 32  3.39506        12.550
 33  3.39703        12.050
 34  3.39889        11.600
 35  3.40085        11.150
 36  3.40291        10.700
 37  3.40509        10.250
 38  3.40740         9.800
 39  3.40957         9.400
 40  3.41187         9.000
 41  3.41430         8.600
 42  3.41689         8.200
 43  3.41966         7.800
 44  3.42224         7.450
 45  3.42501         7.100
 46  3.42798         6.750
 47  3.43072         6.450
 48  3.43365         6.150
 49  3.43691         5.840
 50  3.44032         5.540
 51  3.44400         5.240
 52  3.44774         4.960
 53  3.45180         4.680
 54  3.45592         4.420
 55  3.46043         4.160
 56  3.46441         3.950
 57  3.46787         3.780
 58  3.47157         3.610
 59  3.47556         3.440
 60  3.47960         3.280
 61  3.48395         3.120
 62  3.48837         2.970
 63  3.49313         2.820
 64  3.49831         2.670
 65  3.50358         2.530
 66  3.50930         2.390
 67  3.51511         2.260
 68  3.52145         2.130
 69  3.52842         2.000
 70  3.53552         1.880
 71  3.54333         1.760
 72  3.55202         1.640
 73  3.56090         1.530
 74  3.56989         1.430
 75  3.57990         1.330
 76  3.59118         1.230
 77  3.59878         1.170
 78  3.60413         1.130
 79  3.60978         1.090
 80  3.61576         1.050
 81  3.62210         1.010
 82  3.62882         0.970
 83  3.63596         0.930
 84  3.64354         0.890
 85  3.65161         0.850
 86  3.65914         0.815
 87  3.66716         0.780
 88  3.67579         0.745
 89  3.68510         0.710
 90  3.69515         0.675
 91  3.70443         0.645
 92  3.71438         0.615
 93  3.72510         0.585
 94  3.73668         0.555
 95  3.74925         0.525
 96  3.75830         0.505
 97  3.76732         0.486
 98  3.77742         0.466
 99  3.78817         0.446
100  3.79965         0.426
101  3.81069         0.408
102  3.82242         0.390
103  3.83497         0.372
104  3.84843         0.354
105  3.86127         0.338
106  3.87499         0.322
107  3.88976         0.306
108  3.90469         0.291
109  3.92079         0.276
110  3.93828         0.261
111  3.95605         0.247
112  3.97542         0.233
113  3.99512         0.220
114  4.01665         0.207
115  4.04039         0.194
116  4.06457         0.182
117  4.09117         0.170
118  4.12063         0.158
119  4.15335         0.146
120  4.18676         0.135
121  4.22397         0.124
122  4.26214         0.114
123  4.30092         0.105
124  4.34284         0.097
125  4.38858         0.089
126  4.43895         0.081
127  4.50188         0.073
128  4.58398         0.064
129  4.67663         0.055
130  4.73532         0.050
