Sensor Model:   RX-202A-AA-0.05B
Serial Number:  U02269
Data Format:    4      (Log Ohms/Kelvin)
SetPoint Limit: 40.0      (Kelvin)
Temperature coefficient:  1 (Negative)
Number of Breakpoints:   131

No.   Units      Temperature (K)

  1  3.34181        40.000
  2  3.34298        38.600
  3  3.34411        37.300
  4  3.34531        36.000
  5  3.34646        34.800
  6  3.34767        33.600
  7  3.34894        32.400
  8  3.35028        31.200
  9  3.35168        30.000
 10  3.35316        28.800
 11  3.35460        27.700
 12  3.35611        26.600
 13  3.35770        25.500
 14  3.35939        24.400
 15  3.36102        23.400
 16  3.36274        22.400
 17  3.36457        21.400
 18  3.36651        20.400
 19  3.36795        19.700
 20  3.36913        19.150
 21  3.37035        18.600
 22  3.37162        18.050
 23  3.37294        17.500
 24  3.37432        16.950
 25  3.37576        16.400
 26  3.37727        15.850
 27  3.37885        15.300
 28  3.38050        14.750
 29  3.38207        14.250
 30  3.38372        13.750
 31  3.38545        13.250
 32  3.38726        12.750
 33  3.38917        12.250
 34  3.39118        11.750
 35  3.39309        11.300
 36  3.39510        10.850
 37  3.39721        10.400
 38  3.39945         9.950
 39  3.40155         9.550
 40  3.40377         9.150
 41  3.40612         8.750
 42  3.40862         8.350
 43  3.41129         7.950
 44  3.41380         7.600
 45  3.41647         7.250
 46  3.41934         6.900
 47  3.42243         6.550
 48  3.42575         6.200
 49  3.42923         5.860
 50  3.43257         5.560
 51  3.43594         5.280
 52  3.43960         5.000
 53  3.44357         4.720
 54  3.44761         4.460
 55  3.45201         4.200
 56  3.45609         3.980
 57  3.45968         3.800
 58  3.46333         3.630
 59  3.46701         3.470
 60  3.47096         3.310
 61  3.47522         3.150
 62  3.47953         3.000
 63  3.48419         2.850
 64  3.48924         2.700
 65  3.49437         2.560
 66  3.49995         2.420
 67  3.50606         2.280
 68  3.51228         2.150
 69  3.51911         2.020
 70  3.52606         1.900
 71  3.53371         1.780
 72  3.54221         1.660
 73  3.55092         1.550
 74  3.55972         1.450
 75  3.56952         1.350
 76  3.58056         1.250
 77  3.58862         1.185
 78  3.59388         1.145
 79  3.59942         1.105
 80  3.60527         1.065
 81  3.61146         1.025
 82  3.61801         0.985
 83  3.62493         0.945
 84  3.63227         0.905
 85  3.63911         0.870
 86  3.64639         0.835
 87  3.65419         0.800
 88  3.66254         0.765
 89  3.67149         0.730
 90  3.68112         0.695
 91  3.69154         0.660
 92  3.70120         0.630
 93  3.71156         0.600
 94  3.72276         0.570
 95  3.73491         0.540
 96  3.74811         0.510
 97  3.75862         0.488
 98  3.76876         0.468
 99  3.77956         0.448
100  3.78994         0.430
101  3.80095         0.412
102  3.81269         0.394
103  3.82525         0.376
104  3.83872         0.358
105  3.85158         0.342
106  3.86532         0.326
107  3.88011         0.310
108  3.89607         0.294
109  3.91227         0.279
110  3.92984         0.264
111  3.94769         0.250
112  3.96712         0.236
113  3.98688         0.223
114  4.00845         0.210
115  4.03222         0.197
116  4.05642         0.185
117  4.08304         0.173
118  4.11252         0.161
119  4.14526         0.149
120  4.17870         0.138
121  4.21589         0.127
122  4.25395         0.117
123  4.29251         0.108
124  4.33651         0.099
125  4.38195         0.091
126  4.43175         0.084
127  4.49021         0.076
128  4.56714         0.068
129  4.66036         0.059
130  4.74977         0.051
131  4.76410         0.050
