Sensor Model:   CX-1070-AA-4L
Serial Number:  X09941
Data Format:    4      (Log Ohms/Kelvin)
SetPoint Limit: 325.      (Kelvin)
Temperature coefficient:  1 (Negative)
Number of Breakpoints:   135

No.   Units      Temperature (K)

  1  1.94632       325.000
  2  1.95541       319.000
  3  1.96393       313.500
  4  1.97264       308.000
  5  1.98155       302.500
  6  1.99067       297.000
  7  2.00001       291.500
  8  2.00957       286.000
  9  2.01847       281.000
 10  2.02755       276.000
 11  2.03685       271.000
 12  2.04636       266.000
 13  2.05608       261.000
 14  2.06603       256.000
 15  2.07622       251.000
 16  2.08665       246.000
 17  2.09733       241.000
 18  2.10827       236.000
 19  2.11949       231.000
 20  2.13099       226.000
 21  2.14278       221.000
 22  2.15488       216.000
 23  2.16730       211.000
 24  2.18005       206.000
 25  2.19183       201.500
 26  2.20389       197.000
 27  2.21627       192.500
 28  2.22896       188.000
 29  2.24199       183.500
 30  2.25537       179.000
 31  2.26912       174.500
 32  2.28325       170.000
 33  2.29778       165.500
 34  2.31275       161.000
 35  2.32816       156.500
 36  2.34227       152.500
 37  2.35675       148.500
 38  2.37166       144.500
 39  2.38701       140.500
 40  2.40282       136.500
 41  2.41911       132.500
 42  2.43593       128.500
 43  2.45329       124.500
 44  2.47123       120.500
 45  2.48746       117.000
 46  2.50417       113.500
 47  2.52142       110.000
 48  2.53924       106.500
 49  2.55767       103.000
 50  2.57127       100.500
 51  2.58519        98.000
 52  2.59949        95.500
 53  2.61418        93.000
 54  2.62929        90.500
 55  2.64485        88.000
 56  2.65764        86.000
 57  2.67073        84.000
 58  2.68415        82.000
 59  2.69792        80.000
 60  2.71206        78.000
 61  2.72659        76.000
 62  2.74152        74.000
 63  2.75688        72.000
 64  2.77270        70.000
 65  2.78901        68.000
 66  2.80583        66.000
 67  2.82321        64.000
 68  2.84117        62.000
 69  2.85975        60.000
 70  2.87705        58.200
 71  2.89493        56.400
 72  2.91343        54.600
 73  2.93259        52.800
 74  2.95246        51.000
 75  2.97078        49.400
 76  2.98972        47.800
 77  3.00937        46.200
 78  3.02975        44.600
 79  3.05093        43.000
 80  3.07298        41.400
 81  3.09597        39.800
 82  3.11843        38.300
 83  3.14187        36.800
 84  3.16471        35.400
 85  3.18853        34.000
 86  3.21344        32.600
 87  3.23765        31.300
 88  3.26295        30.000
 89  3.28949        28.700
 90  3.31521        27.500
 91  3.34216        26.300
 92  3.37053        25.100
 93  3.39792        24.000
 94  3.42670        22.900
 95  3.45714        21.800
 96  3.48640        20.800
 97  3.50794        20.100
 98  3.52702        19.500
 99  3.54682        18.900
100  3.56737        18.300
101  3.58874        17.700
102  3.61099        17.100
103  3.63420        16.500
104  3.65641        15.950
105  3.67954        15.400
106  3.70373        14.850
107  3.72904        14.300
108  3.75315        13.800
109  3.77835        13.300
110  3.80479        12.800
111  3.83258        12.300
112  3.85889        11.850
113  3.88649        11.400
114  3.91557        10.950
115  3.94626        10.500
116  3.97876        10.050
117  4.00937         9.650
118  4.04171         9.250
119  4.07602         8.850
120  4.11255         8.450
121  4.15158         8.050
122  4.18810         7.700
123  4.22697         7.350
124  4.26863         7.000
125  4.31339         6.650
126  4.36173         6.300
127  4.41577         5.940
128  4.46466         5.640
129  4.51751         5.340
130  4.57110         5.060
131  4.62921         4.780
132  4.69270         4.500
133  4.75738         4.240
134  4.81715         4.020
135  4.82317         4.000
