Sensor Model:   CX-1070-AA-4L
Serial Number:  X10045
Data Format:    4      (Log Ohms/Kelvin)
SetPoint Limit: 325.      (Kelvin)
Temperature coefficient:  1 (Negative)
Number of Breakpoints:   130

No.   Units      Temperature (K)

  1  1.76022       325.000
  2  1.76831       319.000
  3  1.77589       313.500
  4  1.78364       308.000
  5  1.79157       302.500
  6  1.79968       297.000
  7  1.80798       291.500
  8  1.81648       286.000
  9  1.82519       280.500
 10  1.83329       275.500
 11  1.84156       270.500
 12  1.85002       265.500
 13  1.85868       260.500
 14  1.86754       255.500
 15  1.87660       250.500
 16  1.88587       245.500
 17  1.89537       240.500
 18  1.90509       235.500
 19  1.91505       230.500
 20  1.92526       225.500
 21  1.93572       220.500
 22  1.94645       215.500
 23  1.95745       210.500
 24  1.96873       205.500
 25  1.98031       200.500
 26  1.99220       195.500
 27  2.00318       191.000
 28  2.01443       186.500
 29  2.02596       182.000
 30  2.03778       177.500
 31  2.04991       173.000
 32  2.06235       168.500
 33  2.07514       164.000
 34  2.08827       159.500
 35  2.10177       155.000
 36  2.11565       150.500
 37  2.12995       146.000
 38  2.14467       141.500
 39  2.15814       137.500
 40  2.17198       133.500
 41  2.18622       129.500
 42  2.20088       125.500
 43  2.21598       121.500
 44  2.23155       117.500
 45  2.24762       113.500
 46  2.26423       109.500
 47  2.27925       106.000
 48  2.29470       102.500
 49  2.30837        99.500
 50  2.32004        97.000
 51  2.33198        94.500
 52  2.34423        92.000
 53  2.35678        89.500
 54  2.36967        87.000
 55  2.38291        84.500
 56  2.39653        82.000
 57  2.41053        79.500
 58  2.42206        77.500
 59  2.43384        75.500
 60  2.44593        73.500
 61  2.45833        71.500
 62  2.47107        69.500
 63  2.48415        67.500
 64  2.49761        65.500
 65  2.51146        63.500
 66  2.52574        61.500
 67  2.54120        59.400
 68  2.55488        57.600
 69  2.56897        55.800
 70  2.58350        54.000
 71  2.59850        52.200
 72  2.61400        50.400
 73  2.63003        48.600
 74  2.64664        46.800
 75  2.66387        45.000
 76  2.67976        43.400
 77  2.69620        41.800
 78  2.71326        40.200
 79  2.72984        38.700
 80  2.74705        37.200
 81  2.76493        35.700
 82  2.78353        34.200
 83  2.80293        32.700
 84  2.82183        31.300
 85  2.84152        29.900
 86  2.86212        28.500
 87  2.88215        27.200
 88  2.90308        25.900
 89  2.92506        24.600
 90  2.94635        23.400
 91  2.96683        22.300
 92  2.98840        21.200
 93  3.01110        20.100
 94  3.01656        19.850
 95  3.02738        19.350
 96  3.04197        18.700
 97  3.05709        18.050
 98  3.07279        17.400
 99  3.08784        16.800
100  3.10346        16.200
101  3.11971        15.600
102  3.13664        15.000
103  3.15283        14.450
104  3.16969        13.900
105  3.18731        13.350
106  3.20576        12.800
107  3.22334        12.300
108  3.24172        11.800
109  3.26104        11.300
110  3.28137        10.800
111  3.30066        10.350
112  3.32095         9.900
113  3.34239         9.450
114  3.36255         9.050
115  3.38379         8.650
116  3.40632         8.250
117  3.43026         7.850
118  3.45581         7.450
119  3.47972         7.100
120  3.50516         6.750
121  3.53242         6.400
122  3.56174         6.050
123  3.59156         5.720
124  3.62280         5.400
125  3.65448         5.100
126  3.68879         4.800
127  3.72365         4.520
128  3.75880         4.260
129  3.79405         4.020
130  3.79734         4.000
