Sensor Model:   CX-1070-AA-4L
Serial Number:  X10051
Data Format:    4      (Log Ohms/Kelvin)
SetPoint Limit: 325.      (Kelvin)
Temperature coefficient:  1 (Negative)
Number of Breakpoints:   130

No.   Units      Temperature (K)

  1  1.76512       325.000
  2  1.77317       319.000
  3  1.78071       313.500
  4  1.78843       308.000
  5  1.79634       302.500
  6  1.80442       297.000
  7  1.81270       291.500
  8  1.82118       286.000
  9  1.82907       281.000
 10  1.83713       276.000
 11  1.84538       271.000
 12  1.85381       266.000
 13  1.86244       261.000
 14  1.87126       256.000
 15  1.88030       251.000
 16  1.88954       246.000
 17  1.89901       241.000
 18  1.90871       236.000
 19  1.91864       231.000
 20  1.92883       226.000
 21  1.93926       221.000
 22  1.94996       216.000
 23  1.96093       211.000
 24  1.97219       206.000
 25  1.98375       201.000
 26  1.99561       196.000
 27  2.00657       191.500
 28  2.01779       187.000
 29  2.02929       182.500
 30  2.04109       178.000
 31  2.05319       173.500
 32  2.06562       169.000
 33  2.07837       164.500
 34  2.09148       160.000
 35  2.10495       155.500
 36  2.11881       151.000
 37  2.13308       146.500
 38  2.14777       142.000
 39  2.16122       138.000
 40  2.17503       134.000
 41  2.18924       130.000
 42  2.20386       126.000
 43  2.21893       122.000
 44  2.23446       118.000
 45  2.25049       114.000
 46  2.26705       110.000
 47  2.28202       106.500
 48  2.29744       103.000
 49  2.31106       100.000
 50  2.32270        97.500
 51  2.33461        95.000
 52  2.34682        92.500
 53  2.35934        90.000
 54  2.37219        87.500
 55  2.38539        85.000
 56  2.39895        82.500
 57  2.41291        80.000
 58  2.42728        77.500
 59  2.43912        75.500
 60  2.45123        73.500
 61  2.46366        71.500
 62  2.47642        69.500
 63  2.48954        67.500
 64  2.50302        65.500
 65  2.51691        63.500
 66  2.53121        61.500
 67  2.54671        59.400
 68  2.56042        57.600
 69  2.57454        55.800
 70  2.58910        54.000
 71  2.60413        52.200
 72  2.61967        50.400
 73  2.63573        48.600
 74  2.65238        46.800
 75  2.66965        45.000
 76  2.68557        43.400
 77  2.70205        41.800
 78  2.71914        40.200
 79  2.73577        38.700
 80  2.75301        37.200
 81  2.77094        35.700
 82  2.78959        34.200
 83  2.80905        32.700
 84  2.82799        31.300
 85  2.84775        29.900
 86  2.86841        28.500
 87  2.88850        27.200
 88  2.90949        25.900
 89  2.93154        24.600
 90  2.95288        23.400
 91  2.97342        22.300
 92  2.99504        21.200
 93  3.01780        20.100
 94  3.02327        19.850
 95  3.03412        19.350
 96  3.04875        18.700
 97  3.06391        18.050
 98  3.07965        17.400
 99  3.09474        16.800
100  3.11040        16.200
101  3.12669        15.600
102  3.14367        15.000
103  3.15991        14.450
104  3.17681        13.900
105  3.19448        13.350
106  3.21298        12.800
107  3.23061        12.300
108  3.24905        11.800
109  3.26843        11.300
110  3.28882        10.800
111  3.30817        10.350
112  3.32852         9.900
113  3.35002         9.450
114  3.37024         9.050
115  3.39155         8.650
116  3.41415         8.250
117  3.43816         7.850
118  3.46379         7.450
119  3.48777         7.100
120  3.51328         6.750
121  3.54061         6.400
122  3.57001         6.050
123  3.59990         5.720
124  3.63122         5.400
125  3.66297         5.100
126  3.69737         4.800
127  3.73233         4.520
128  3.76760         4.260
129  3.80302         4.020
130  3.80633         4.000
