Sensor Model:   CX-1030-CU-HT-1.4L
Serial Number:  X101105
Data Format:    4      (Log Ohms/Kelvin)
SetPoint Limit: 325.0      (Kelvin)
Temperature coefficient:  1 (Negative)
Number of Breakpoints:   143

No.   Units      Temperature (K)

  1  1.52034       330.046
  2  1.52452       325.000
  3  1.52963       319.000
  4  1.53443       313.500
  5  1.53933       308.000
  6  1.54435       302.500
  7  1.54948       297.000
  8  1.55473       291.500
  9  1.56011       286.000
 10  1.56561       280.500
 11  1.57124       275.000
 12  1.57701       269.500
 13  1.58292       264.000
 14  1.58897       258.500
 15  1.59460       253.500
 16  1.60035       248.500
 17  1.60624       243.500
 18  1.61226       238.500
 19  1.61841       233.500
 20  1.62471       228.500
 21  1.63116       223.500
 22  1.63776       218.500
 23  1.64451       213.500
 24  1.65142       208.500
 25  1.65851       203.500
 26  1.66576       198.500
 27  1.67320       193.500
 28  1.68082       188.500
 29  1.68863       183.500
 30  1.69665       178.500
 31  1.70487       173.500
 32  1.71331       168.500
 33  1.72111       164.000
 34  1.72909       159.500
 35  1.73728       155.000
 36  1.74567       150.500
 37  1.75428       146.000
 38  1.76312       141.500
 39  1.77220       137.000
 40  1.78153       132.500
 41  1.79113       128.000
 42  1.80101       123.500
 43  1.81005       119.500
 44  1.81933       115.500
 45  1.82888       111.500
 46  1.83872       107.500
 47  1.84885       103.500
 48  1.85669       100.500
 49  1.86335        98.000
 50  1.87015        95.500
 51  1.87710        93.000
 52  1.88421        90.500
 53  1.89148        88.000
 54  1.89892        85.500
 55  1.90655        83.000
 56  1.91437        80.500
 57  1.92239        78.000
 58  1.93062        75.500
 59  1.93908        73.000
 60  1.94779        70.500
 61  1.95495        68.500
 62  1.96227        66.500
 63  1.96979        64.500
 64  1.97750        62.500
 65  1.98542        60.500
 66  1.99315        58.600
 67  2.00152        56.600
 68  2.01013        54.600
 69  2.01901        52.600
 70  2.02817        50.600
 71  2.03764        48.600
 72  2.04644        46.800
 73  2.05551        45.000
 74  2.06488        43.200
 75  2.07457        41.400
 76  2.08517        39.500
 77  2.09501        37.800
 78  2.10520        36.100
 79  2.11515        34.500
 80  2.12547        32.900
 81  2.13619        31.300
 82  2.14665        29.800
 83  2.15752        28.300
 84  2.16810        26.900
 85  2.17912        25.500
 86  2.19064        24.100
 87  2.20185        22.800
 88  2.21268        21.600
 89  2.22403        20.400
 90  2.23245        19.550
 91  2.23961        18.850
 92  2.24701        18.150
 93  2.25468        17.450
 94  2.26206        16.800
 95  2.26971        16.150
 96  2.27767        15.500
 97  2.28531        14.900
 98  2.29326        14.300
 99  2.30086        13.750
100  2.30877        13.200
101  2.31704        12.650
102  2.32569        12.100
103  2.33394        11.600
104  2.34258        11.100
105  2.35166        10.600
106  2.36026        10.150
107  2.36928         9.700
108  2.37880         9.250
109  2.38887         8.800
110  2.39836         8.400
111  2.40837         8.000
112  2.41900         7.600
113  2.43033         7.200
114  2.44091         6.850
115  2.45214         6.500
116  2.46416         6.150
117  2.47630         5.820
118  2.48893         5.500
119  2.50252         5.180
120  2.51628         4.880
121  2.53116         4.580
122  2.54626         4.300
123  2.56266         4.020
124  2.56653         3.960
125  2.57540         3.820
126  2.58759         3.640
127  2.60060         3.460
128  2.61376         3.290
129  2.62784         3.120
130  2.64209         2.960
131  2.65740         2.800
132  2.67396         2.640
133  2.69080         2.490
134  2.70781         2.350
135  2.72626         2.210
136  2.74639         2.070
137  2.76688         1.940
138  2.78932         1.810
139  2.81220         1.690
140  2.83745         1.570
141  2.86329         1.460
142  2.87884         1.400
143  2.93750         1.199
