Sensor Model:   CX-1070-AA-4L
Serial Number:  X10409
Data Format:    4      (Log Ohms/Kelvin)
SetPoint Limit: 325.      (Kelvin)
Temperature coefficient:  1 (Negative)
Number of Breakpoints:   132

No.   Units      Temperature (K)

  1  1.87104       325.000
  2  1.87939       319.000
  3  1.88721       313.500
  4  1.89521       308.000
  5  1.90339       302.500
  6  1.91177       297.000
  7  1.92034       291.500
  8  1.92912       286.000
  9  1.93811       280.500
 10  1.94648       275.500
 11  1.95503       270.500
 12  1.96378       265.500
 13  1.97272       260.500
 14  1.98188       255.500
 15  1.99125       250.500
 16  2.00084       245.500
 17  2.01066       240.500
 18  2.02071       235.500
 19  2.03102       230.500
 20  2.04158       225.500
 21  2.05241       220.500
 22  2.06351       215.500
 23  2.07490       210.500
 24  2.08660       205.500
 25  2.09860       200.500
 26  2.10969       196.000
 27  2.12105       191.500
 28  2.13269       187.000
 29  2.14464       182.500
 30  2.15690       178.000
 31  2.16948       173.500
 32  2.18241       169.000
 33  2.19569       164.500
 34  2.20936       160.000
 35  2.22341       155.500
 36  2.23789       151.000
 37  2.25114       147.000
 38  2.26475       143.000
 39  2.27874       139.000
 40  2.29314       135.000
 41  2.30797       131.000
 42  2.32325       127.000
 43  2.33901       123.000
 44  2.35529       119.000
 45  2.37210       115.000
 46  2.38731       111.500
 47  2.40297       108.000
 48  2.41914       104.500
 49  2.43585       101.000
 50  2.44816        98.500
 51  2.46074        96.000
 52  2.47367        93.500
 53  2.48693        91.000
 54  2.50056        88.500
 55  2.51457        86.000
 56  2.52900        83.500
 57  2.54086        81.500
 58  2.55300        79.500
 59  2.56545        77.500
 60  2.57822        75.500
 61  2.59134        73.500
 62  2.60481        71.500
 63  2.61867        69.500
 64  2.63293        67.500
 65  2.64762        65.500
 66  2.66276        63.500
 67  2.67839        61.500
 68  2.69536        59.400
 69  2.71040        57.600
 70  2.72592        55.800
 71  2.74194        54.000
 72  2.75852        52.200
 73  2.77568        50.400
 74  2.79347        48.600
 75  2.80986        47.000
 76  2.82681        45.400
 77  2.84438        43.800
 78  2.86260        42.200
 79  2.88154        40.600
 80  2.90000        39.100
 81  2.91919        37.600
 82  2.93916        36.100
 83  2.95859        34.700
 84  2.97881        33.300
 85  2.99993        31.900
 86  3.02200        30.500
 87  3.04346        29.200
 88  3.06589        27.900
 89  3.08943        26.600
 90  3.11226        25.400
 91  3.13620        24.200
 92  3.16144        23.000
 93  3.18583        21.900
 94  3.21154        20.800
 95  3.23253        19.950
 96  3.24918        19.300
 97  3.26647        18.650
 98  3.28443        18.000
 99  3.30168        17.400
100  3.31960        16.800
101  3.33826        16.200
102  3.35609        15.650
103  3.37464        15.100
104  3.39400        14.550
105  3.41424        14.000
106  3.43349        13.500
107  3.45359        13.000
108  3.47466        12.500
109  3.49678        12.000
110  3.52006        11.500
111  3.54216        11.050
112  3.56538        10.600
113  3.58992        10.150
114  3.61589         9.700
115  3.64037         9.300
116  3.66623         8.900
117  3.69370         8.500
118  3.72297         8.100
119  3.75030         7.750
120  3.77930         7.400
121  3.81032         7.050
122  3.84355         6.700
123  3.87933         6.350
124  3.91240         6.050
125  3.94654         5.760
126  3.98462         5.460
127  4.02585         5.160
128  4.06767         4.880
129  4.11308         4.600
130  4.15917         4.340
131  4.20952         4.080
132  4.22652         4.000
