Sensor Model:   CX-1030-CU-HT-1.4L
Serial Number:  X108579
Data Format:    4      (Log Ohms/Kelvin)
SetPoint Limit: 325.0      (Kelvin)
Temperature coefficient:  1 (Negative)
Number of Breakpoints:   141

No.   Units      Temperature (K)

  1  1.53270       330.031
  2  1.53707       325.000
  3  1.54242       319.000
  4  1.54744       313.500
  5  1.55256       308.000
  6  1.55780       302.500
  7  1.56316       297.000
  8  1.56864       291.500
  9  1.57424       286.000
 10  1.57997       280.500
 11  1.58584       275.000
 12  1.59184       269.500
 13  1.59798       264.000
 14  1.60426       258.500
 15  1.61070       253.000
 16  1.61728       247.500
 17  1.62403       242.000
 18  1.63031       237.000
 19  1.63673       232.000
 20  1.64329       227.000
 21  1.65000       222.000
 22  1.65686       217.000
 23  1.66388       212.000
 24  1.67107       207.000
 25  1.67842       202.000
 26  1.68595       197.000
 27  1.69366       192.000
 28  1.70156       187.000
 29  1.70965       182.000
 30  1.71795       177.000
 31  1.72646       172.000
 32  1.73519       167.000
 33  1.74415       162.000
 34  1.75243       157.500
 35  1.76090       153.000
 36  1.76959       148.500
 37  1.77849       144.000
 38  1.78763       139.500
 39  1.79702       135.000
 40  1.80667       130.500
 41  1.81658       126.000
 42  1.82679       121.500
 43  1.83613       117.500
 44  1.84571       113.500
 45  1.85558       109.500
 46  1.86573       105.500
 47  1.87620       101.500
 48  1.88429        98.500
 49  1.89116        96.000
 50  1.89819        93.500
 51  1.90536        91.000
 52  1.91270        88.500
 53  1.92020        86.000
 54  1.92789        83.500
 55  1.93577        81.000
 56  1.94383        78.500
 57  1.95211        76.000
 58  1.96061        73.500
 59  1.96936        71.000
 60  1.97836        68.500
 61  1.98577        66.500
 62  1.99335        64.500
 63  2.00113        62.500
 64  2.00912        60.500
 65  2.01691        58.600
 66  2.02534        56.600
 67  2.03402        54.600
 68  2.04296        52.600
 69  2.05219        50.600
 70  2.06171        48.600
 71  2.07057        46.800
 72  2.07969        45.000
 73  2.08911        43.200
 74  2.09885        41.400
 75  2.10950        39.500
 76  2.11938        37.800
 77  2.12961        36.100
 78  2.13959        34.500
 79  2.14993        32.900
 80  2.16068        31.300
 81  2.17116        29.800
 82  2.18204        28.300
 83  2.19264        26.900
 84  2.20367        25.500
 85  2.21520        24.100
 86  2.22641        22.800
 87  2.23724        21.600
 88  2.24859        20.400
 89  2.25701        19.550
 90  2.26417        18.850
 91  2.27157        18.150
 92  2.27923        17.450
 93  2.28661        16.800
 94  2.29425        16.150
 95  2.30159        15.550
 96  2.30919        14.950
 97  2.31711        14.350
 98  2.32466        13.800
 99  2.33251        13.250
100  2.34073        12.700
101  2.34933        12.150
102  2.35753        11.650
103  2.36611        11.150
104  2.37513        10.650
105  2.38367        10.200
106  2.39262         9.750
107  2.40208         9.300
108  2.41206         8.850
109  2.42147         8.450
110  2.43140         8.050
111  2.44193         7.650
112  2.45315         7.250
113  2.46363         6.900
114  2.47475         6.550
115  2.48664         6.200
116  2.49902         5.860
117  2.51152         5.540
118  2.52498         5.220
119  2.53860         4.920
120  2.55331         4.620
121  2.56824         4.340
122  2.58445         4.060
123  2.59768         3.850
124  2.60975         3.670
125  2.62263         3.490
126  2.63566         3.320
127  2.64959         3.150
128  2.66370         2.990
129  2.67884         2.830
130  2.69522         2.670
131  2.71186         2.520
132  2.72866         2.380
133  2.74687         2.240
134  2.76674         2.100
135  2.78694         1.970
136  2.80903         1.840
137  2.83153         1.720
138  2.85632         1.600
139  2.88164         1.490
140  2.90461         1.400
141  2.96386         1.200
