Sensor Model:   CX-1050-AA-1.4L
Serial Number:  X12532
Data Format:    4      (Log Ohms/Kelvin)
SetPoint Limit: 325.      (Kelvin)
Temperature coefficient:  1 (Negative)
Number of Breakpoints:   150

No.   Units      Temperature (K)

  1  1.74677       325.000
  2  1.75365       319.500
  3  1.76003       314.500
  4  1.76656       309.500
  5  1.77324       304.500
  6  1.78006       299.500
  7  1.78703       294.500
  8  1.79416       289.500
  9  1.80145       284.500
 10  1.80890       279.500
 11  1.81652       274.500
 12  1.82432       269.500
 13  1.83230       264.500
 14  1.84046       259.500
 15  1.84881       254.500
 16  1.85737       249.500
 17  1.86612       244.500
 18  1.87509       239.500
 19  1.88428       234.500
 20  1.89370       229.500
 21  1.90336       224.500
 22  1.91326       219.500
 23  1.92342       214.500
 24  1.93385       209.500
 25  1.94455       204.500
 26  1.95444       200.000
 27  1.96456       195.500
 28  1.97494       191.000
 29  1.98559       186.500
 30  1.99651       182.000
 31  2.00772       177.500
 32  2.01923       173.000
 33  2.03105       168.500
 34  2.04319       164.000
 35  2.05568       159.500
 36  2.06853       155.000
 37  2.08176       150.500
 38  2.09538       146.000
 39  2.10785       142.000
 40  2.12064       138.000
 41  2.13381       134.000
 42  2.14736       130.000
 43  2.16132       126.000
 44  2.17571       122.000
 45  2.19056       118.000
 46  2.20590       114.000
 47  2.22177       110.000
 48  2.23612       106.500
 49  2.25092       103.000
 50  2.26402       100.000
 51  2.27522        97.500
 52  2.28669        95.000
 53  2.29846        92.500
 54  2.31054        90.000
 55  2.32294        87.500
 56  2.33568        85.000
 57  2.34877        82.500
 58  2.35954        80.500
 59  2.37056        78.500
 60  2.38186        76.500
 61  2.39344        74.500
 62  2.40533        72.500
 63  2.41755        70.500
 64  2.43011        68.500
 65  2.44302        66.500
 66  2.45633        64.500
 67  2.47004        62.500
 68  2.48419        60.500
 69  2.49806        58.600
 70  2.51162        56.800
 71  2.52560        55.000
 72  2.54004        53.200
 73  2.55497        51.400
 74  2.57042        49.600
 75  2.58643        47.800
 76  2.60118        46.200
 77  2.61642        44.600
 78  2.63221        43.000
 79  2.64859        41.400
 80  2.66669        39.700
 81  2.68330        38.200
 82  2.70056        36.700
 83  2.71852        35.200
 84  2.73599        33.800
 85  2.75417        32.400
 86  2.77313        31.000
 87  2.79296        29.600
 88  2.81223        28.300
 89  2.83237        27.000
 90  2.85350        25.700
 91  2.87399        24.500
 92  2.89548        23.300
 93  2.91813        22.100
 94  2.94004        21.000
 95  2.95889        20.100
 96  2.97415        19.400
 97  2.98884        18.750
 98  3.00407        18.100
 99  3.01991        17.450
100  3.03511        16.850
101  3.05089        16.250
102  3.06734        15.650
103  3.08305        15.100
104  3.09940        14.550
105  3.11647        14.000
106  3.13425        13.450
107  3.15113        12.950
108  3.16880        12.450
109  3.18736        11.950
110  3.20684        11.450
111  3.22528        11.000
112  3.24462        10.550
113  3.26499        10.100
114  3.28650         9.650
115  3.30927         9.200
116  3.33075         8.800
117  3.35344         8.400
118  3.37756         8.000
119  3.40327         7.600
120  3.42730         7.250
121  3.45284         6.900
122  3.48016         6.550
123  3.50951         6.200
124  3.54026         5.860
125  3.57150         5.540
126  3.60318         5.240
127  3.63744         4.940
128  3.67224         4.660
129  3.71008         4.380
130  3.74855         4.120
131  3.78072         3.920
132  3.80989         3.750
133  3.84106         3.580
134  3.87450         3.410
135  3.90835         3.250
136  3.94473         3.090
137  3.98408         2.930
138  4.02409         2.780
139  4.06450         2.640
140  4.10831         2.500
141  4.15611         2.360
142  4.20471         2.230
143  4.25790         2.100
144  4.31200         1.980
145  4.37145         1.860
146  4.43744         1.740
147  4.50471         1.630
148  4.57931         1.520
149  4.66297         1.410
150  4.67188         1.400
