Sensor Model:   CX-1050-AA-1.4L
Serial Number:  X12533
Data Format:    4      (Log Ohms/Kelvin)
SetPoint Limit: 325.      (Kelvin)
Temperature coefficient:  1 (Negative)
Number of Breakpoints:   149

No.   Units      Temperature (K)

  1  1.73183       325.000
  2  1.73929       319.000
  3  1.74629       313.500
  4  1.75346       308.000
  5  1.76079       302.500
  6  1.76829       297.000
  7  1.77598       291.500
  8  1.78313       286.500
  9  1.79043       281.500
 10  1.79790       276.500
 11  1.80555       271.500
 12  1.81336       266.500
 13  1.82136       261.500
 14  1.82955       256.500
 15  1.83793       251.500
 16  1.84652       246.500
 17  1.85531       241.500
 18  1.86432       236.500
 19  1.87356       231.500
 20  1.88302       226.500
 21  1.89273       221.500
 22  1.90269       216.500
 23  1.91291       211.500
 24  1.92339       206.500
 25  1.93416       201.500
 26  1.94411       197.000
 27  1.95429       192.500
 28  1.96474       188.000
 29  1.97545       183.500
 30  1.98643       179.000
 31  1.99771       174.500
 32  2.00928       170.000
 33  2.02117       165.500
 34  2.03340       161.000
 35  2.04596       156.500
 36  2.05890       152.000
 37  2.07221       147.500
 38  2.08440       143.500
 39  2.09691       139.500
 40  2.10977       135.500
 41  2.12301       131.500
 42  2.13665       127.500
 43  2.15070       123.500
 44  2.16520       119.500
 45  2.18016       115.500
 46  2.19563       111.500
 47  2.20963       108.000
 48  2.22403       104.500
 49  2.23892       101.000
 50  2.24987        98.500
 51  2.26106        96.000
 52  2.27254        93.500
 53  2.28430        91.000
 54  2.29639        88.500
 55  2.30879        86.000
 56  2.32154        83.500
 57  2.33203        81.500
 58  2.34275        79.500
 59  2.35376        77.500
 60  2.36505        75.500
 61  2.37662        73.500
 62  2.38848        71.500
 63  2.40066        69.500
 64  2.41320        67.500
 65  2.42610        65.500
 66  2.43939        63.500
 67  2.45309        61.500
 68  2.46795        59.400
 69  2.48111        57.600
 70  2.49468        55.800
 71  2.50868        54.000
 72  2.52314        52.200
 73  2.53810        50.400
 74  2.55360        48.600
 75  2.56966        46.800
 76  2.58447        45.200
 77  2.59978        43.600
 78  2.61566        42.000
 79  2.63214        40.400
 80  2.64818        38.900
 81  2.66482        37.400
 82  2.68214        35.900
 83  2.70017        34.400
 84  2.71771        33.000
 85  2.73598        31.600
 86  2.75507        30.200
 87  2.77359        28.900
 88  2.79293        27.600
 89  2.81319        26.300
 90  2.83281        25.100
 91  2.85337        23.900
 92  2.87499        22.700
 93  2.89587        21.600
 94  2.91783        20.500
 95  2.93465        19.700
 96  2.94880        19.050
 97  2.96346        18.400
 98  2.97869        17.750
 99  2.99328        17.150
100  3.00843        16.550
101  3.02419        15.950
102  3.04061        15.350
103  3.05631        14.800
104  3.07266        14.250
105  3.08973        13.700
106  3.10757        13.150
107  3.12458        12.650
108  3.14237        12.150
109  3.16105        11.650
110  3.18070        11.150
111  3.19932        10.700
112  3.21888        10.250
113  3.23952         9.800
114  3.26135         9.350
115  3.28191         8.950
116  3.30360         8.550
117  3.32663         8.150
118  3.35114         7.750
119  3.37400         7.400
120  3.39826         7.050
121  3.42418         6.700
122  3.45194         6.350
123  3.48362         5.980
124  3.51326         5.660
125  3.54324         5.360
126  3.57559         5.060
127  3.60837         4.780
128  3.64391         4.500
129  3.68279         4.220
130  3.71621         4.000
131  3.74549         3.820
132  3.77505         3.650
133  3.80669         3.480
134  3.84071         3.310
135  3.87522         3.150
136  3.91242         2.990
137  3.95018         2.840
138  3.99102         2.690
139  4.03250         2.550
140  4.07755         2.410
141  4.12329         2.280
142  4.17321         2.150
143  4.22818         2.020
144  4.28426         1.900
145  4.34617         1.780
146  4.40924         1.670
147  4.47904         1.560
148  4.55711         1.450
149  4.59660         1.400
