Sensor Model:   CX-1050-AA-1.4L
Serial Number:  X13090
Data Format:    4      (Log Ohms/Kelvin)
SetPoint Limit: 325.      (Kelvin)
Temperature coefficient:  1 (Negative)
Number of Breakpoints:   146

No.   Units      Temperature (K)

  1  1.70964       325.000
  2  1.71657       319.000
  3  1.72305       313.500
  4  1.72967       308.000
  5  1.73644       302.500
  6  1.74337       297.000
  7  1.75045       291.500
  8  1.75769       286.000
  9  1.76510       280.500
 10  1.77269       275.000
 11  1.78045       269.500
 12  1.78840       264.000
 13  1.79654       258.500
 14  1.80412       253.500
 15  1.81186       248.500
 16  1.81978       243.500
 17  1.82788       238.500
 18  1.83616       233.500
 19  1.84464       228.500
 20  1.85332       223.500
 21  1.86221       218.500
 22  1.87131       213.500
 23  1.88064       208.500
 24  1.89020       203.500
 25  1.90000       198.500
 26  1.91004       193.500
 27  1.92035       188.500
 28  1.93093       183.500
 29  1.94179       178.500
 30  1.95183       174.000
 31  1.96211       169.500
 32  1.97265       165.000
 33  1.98346       160.500
 34  1.99456       156.000
 35  2.00596       151.500
 36  2.01768       147.000
 37  2.02973       142.500
 38  2.04213       138.000
 39  2.05489       133.500
 40  2.06658       129.500
 41  2.07859       125.500
 42  2.09094       121.500
 43  2.10366       117.500
 44  2.11677       113.500
 45  2.13030       109.500
 46  2.14427       105.500
 47  2.15871       101.500
 48  2.16989        98.500
 49  2.17943        96.000
 50  2.18918        93.500
 51  2.19916        91.000
 52  2.20939        88.500
 53  2.21988        86.000
 54  2.23064        83.500
 55  2.24168        81.000
 56  2.25305        78.500
 57  2.26475        76.000
 58  2.27679        73.500
 59  2.28670        71.500
 60  2.29685        69.500
 61  2.30727        67.500
 62  2.31797        65.500
 63  2.32897        63.500
 64  2.34028        61.500
 65  2.35252        59.400
 66  2.36455        57.400
 67  2.37696        55.400
 68  2.38849        53.600
 69  2.40037        51.800
 70  2.41262        50.000
 71  2.42528        48.200
 72  2.43837        46.400
 73  2.45192        44.600
 74  2.46597        42.800
 75  2.47893        41.200
 76  2.49317        39.500
 77  2.50710        37.900
 78  2.52156        36.300
 79  2.53565        34.800
 80  2.55028        33.300
 81  2.56553        31.800
 82  2.58036        30.400
 83  2.59581        29.000
 84  2.61196        27.600
 85  2.62766        26.300
 86  2.64407        25.000
 87  2.65998        23.800
 88  2.67664        22.600
 89  2.69420        21.400
 90  2.71118        20.300
 91  2.72415        19.500
 92  2.73507        18.850
 93  2.74638        18.200
 94  2.75814        17.550
 95  2.76941        16.950
 96  2.78112        16.350
 97  2.79332        15.750
 98  2.80497        15.200
 99  2.81712        14.650
100  2.82979        14.100
101  2.84300        13.550
102  2.85560        13.050
103  2.86880        12.550
104  2.88266        12.050
105  2.89724        11.550
106  2.91107        11.100
107  2.92559        10.650
108  2.94092        10.200
109  2.95713         9.750
110  2.97240         9.350
111  2.98852         8.950
112  3.00562         8.550
113  3.02384         8.150
114  3.04329         7.750
115  3.06151         7.400
116  3.08092         7.050
117  3.10172         6.700
118  3.12411         6.350
119  3.14479         6.050
120  3.16615         5.760
121  3.18998         5.460
122  3.21577         5.160
123  3.24194         4.880
124  3.27037         4.600
125  3.29921         4.340
126  3.33067         4.080
127  3.35714         3.880
128  3.38120         3.710
129  3.40697         3.540
130  3.43469         3.370
131  3.46282         3.210
132  3.49123         3.060
133  3.52184         2.910
134  3.55504         2.760
135  3.58873         2.620
136  3.62535         2.480
137  3.66545         2.340
138  3.70633         2.210
139  3.75116         2.080
140  3.80069         1.950
141  3.85132         1.830
142  3.90730         1.710
143  3.96453         1.600
144  4.02232         1.500
145  4.08092         1.410
146  4.08843         1.400
