Sensor Model:   CX-1050-AA-1.4L
Serial Number:  X13089
Data Format:    4      (Log Ohms/Kelvin)
SetPoint Limit: 325.      (Kelvin)
Temperature coefficient:  1 (Negative)
Number of Breakpoints:   147

No.   Units      Temperature (K)

  1  1.72769       325.000
  2  1.73477       319.000
  3  1.74141       313.500
  4  1.74818       308.000
  5  1.75511       302.500
  6  1.76220       297.000
  7  1.76944       291.500
  8  1.77686       286.000
  9  1.78445       280.500
 10  1.79221       275.000
 11  1.80016       269.500
 12  1.80830       264.000
 13  1.81664       258.500
 14  1.82440       253.500
 15  1.83233       248.500
 16  1.84044       243.500
 17  1.84873       238.500
 18  1.85722       233.500
 19  1.86591       228.500
 20  1.87480       223.500
 21  1.88391       218.500
 22  1.89324       213.500
 23  1.90279       208.500
 24  1.91259       203.500
 25  1.92263       198.500
 26  1.93292       193.500
 27  1.94349       188.500
 28  1.95433       183.500
 29  1.96435       179.000
 30  1.97460       174.500
 31  1.98511       170.000
 32  1.99589       165.500
 33  2.00695       161.000
 34  2.01830       156.500
 35  2.02996       152.000
 36  2.04195       147.500
 37  2.05427       143.000
 38  2.06696       138.500
 39  2.07857       134.500
 40  2.09048       130.500
 41  2.10273       126.500
 42  2.11533       122.500
 43  2.12831       118.500
 44  2.14168       114.500
 45  2.15548       110.500
 46  2.16972       106.500
 47  2.18445       102.500
 48  2.19585        99.500
 49  2.20557        97.000
 50  2.21551        94.500
 51  2.22568        92.000
 52  2.23610        89.500
 53  2.24678        87.000
 54  2.25773        84.500
 55  2.26897        82.000
 56  2.28052        79.500
 57  2.29241        77.000
 58  2.30466        74.500
 59  2.31474        72.500
 60  2.32506        70.500
 61  2.33565        68.500
 62  2.34653        66.500
 63  2.35770        64.500
 64  2.36919        62.500
 65  2.38102        60.500
 66  2.39259        58.600
 67  2.40514        56.600
 68  2.41810        54.600
 69  2.43014        52.800
 70  2.44255        51.000
 71  2.45536        49.200
 72  2.46860        47.400
 73  2.48230        45.600
 74  2.49650        43.800
 75  2.50958        42.200
 76  2.52309        40.600
 77  2.53710        39.000
 78  2.55163        37.400
 79  2.56673        35.800
 80  2.58146        34.300
 81  2.59678        32.800
 82  2.61275        31.300
 83  2.62830        29.900
 84  2.64453        28.500
 85  2.66028        27.200
 86  2.67674        25.900
 87  2.69400        24.600
 88  2.71073        23.400
 89  2.72829        22.200
 90  2.74526        21.100
 91  2.76145        20.100
 92  2.77417        19.350
 93  2.78558        18.700
 94  2.79742        18.050
 95  2.80971        17.400
 96  2.82152        16.800
 97  2.83378        16.200
 98  2.84656        15.600
 99  2.85878        15.050
100  2.87152        14.500
101  2.88482        13.950
102  2.89747        13.450
103  2.91068        12.950
104  2.92453        12.450
105  2.93907        11.950
106  2.95283        11.500
107  2.96726        11.050
108  2.98245        10.600
109  2.99848        10.150
110  3.01545         9.700
111  3.03145         9.300
112  3.04834         8.900
113  3.06628         8.500
114  3.08539         8.100
115  3.10322         7.750
116  3.12215         7.400
117  3.14239         7.050
118  3.16407         6.700
119  3.18742         6.350
120  3.20900         6.050
121  3.23129         5.760
122  3.25617         5.460
123  3.28311         5.160
124  3.31047         4.880
125  3.34020         4.600
126  3.37039         4.340
127  3.40334         4.080
128  3.43108         3.880
129  3.45630         3.710
130  3.48333         3.540
131  3.51067         3.380
132  3.54003         3.220
133  3.57175         3.060
134  3.60396         2.910
135  3.63884         2.760
136  3.67428         2.620
137  3.71280         2.480
138  3.75192         2.350
139  3.79459         2.220
140  3.84151         2.090
141  3.88924         1.970
142  3.94167         1.850
143  3.99982         1.730
144  4.05914         1.620
145  4.11896         1.520
146  4.17928         1.430
147  4.20173         1.400
