Sensor Model:   CX-1050-SD-HT-1.4L
Serial Number:  X131175
Data Format:    4      (Log Ohms/Kelvin)
SetPoint Limit: 325.0      (Kelvin)
Temperature coefficient:  1 (Negative)
Number of Breakpoints:   150

No.   Units      Temperature (K)

  1  1.84499       331.483
  2  1.85246       325.000
  3  1.85957       319.000
  4  1.86623       313.500
  5  1.87303       308.000
  6  1.87997       302.500
  7  1.88707       297.000
  8  1.89433       291.500
  9  1.90176       286.000
 10  1.90935       280.500
 11  1.91711       275.000
 12  1.92506       269.500
 13  1.93319       264.000
 14  1.94152       258.500
 15  1.95005       253.000
 16  1.95798       248.000
 17  1.96608       243.000
 18  1.97438       238.000
 19  1.98285       233.000
 20  1.99153       228.000
 21  2.00041       223.000
 22  2.00949       218.000
 23  2.01880       213.000
 24  2.02833       208.000
 25  2.03810       203.000
 26  2.04811       198.000
 27  2.05838       193.000
 28  2.06891       188.000
 29  2.07972       183.000
 30  2.08970       178.500
 31  2.09992       174.000
 32  2.11040       169.500
 33  2.12115       165.000
 34  2.13218       160.500
 35  2.14349       156.000
 36  2.15512       151.500
 37  2.16707       147.000
 38  2.17936       142.500
 39  2.19202       138.000
 40  2.20359       134.000
 41  2.21548       130.000
 42  2.22770       126.000
 43  2.24027       122.000
 44  2.25323       118.000
 45  2.26659       114.000
 46  2.28037       110.000
 47  2.29462       106.000
 48  2.30750       102.500
 49  2.31696       100.000
 50  2.32661        97.500
 51  2.33649        95.000
 52  2.34662        92.500
 53  2.35700        90.000
 54  2.36764        87.500
 55  2.37857        85.000
 56  2.38980        82.500
 57  2.40135        80.000
 58  2.41323        77.500
 59  2.42301        75.500
 60  2.43302        73.500
 61  2.44329        71.500
 62  2.45384        69.500
 63  2.46467        67.500
 64  2.47580        65.500
 65  2.48726        63.500
 66  2.49907        61.500
 67  2.51186        59.400
 68  2.52317        57.600
 69  2.53481        55.800
 70  2.54681        54.000
 71  2.55920        52.200
 72  2.57199        50.400
 73  2.58523        48.600
 74  2.59893        46.800
 75  2.61313        45.000
 76  2.62623        43.400
 77  2.63977        41.800
 78  2.65381        40.200
 79  2.66838        38.600
 80  2.68353        37.000
 81  2.69831        35.500
 82  2.71367        34.000
 83  2.72969        32.500
 84  2.74529        31.100
 85  2.76155        29.700
 86  2.77856        28.300
 87  2.79509        27.000
 88  2.81238        25.700
 89  2.82912        24.500
 90  2.84665        23.300
 91  2.86511        22.100
 92  2.88293        21.000
 93  2.89824        20.100
 94  2.91064        19.400
 95  2.92255        18.750
 96  2.93491        18.100
 97  2.94774        17.450
 98  2.96006        16.850
 99  2.97286        16.250
100  2.98618        15.650
101  2.99892        15.100
102  3.01219        14.550
103  3.02603        14.000
104  3.04050        13.450
105  3.05429        12.950
106  3.06872        12.450
107  3.08387        11.950
108  3.09980        11.450
109  3.11490        11.000
110  3.13076        10.550
111  3.14751        10.100
112  3.16521         9.650
113  3.18190         9.250
114  3.19951         8.850
115  3.21821         8.450
116  3.23812         8.050
117  3.25670         7.700
118  3.27642         7.350
119  3.29749         7.000
120  3.32006         6.650
121  3.34437         6.300
122  3.37147         5.940
123  3.39593         5.640
124  3.42231         5.340
125  3.45096         5.040
126  3.48008         4.760
127  3.51180         4.480
128  3.54408         4.220
129  3.57110         4.020
130  3.59561         3.850
131  3.62181         3.680
132  3.64992         3.510
133  3.67838         3.350
134  3.70898         3.190
135  3.73996         3.040
136  3.77339         2.890
137  3.80970         2.740
138  3.84664         2.600
139  3.88687         2.460
140  3.92780         2.330
141  3.97255         2.200
142  4.02189         2.070
143  4.07217         1.950
144  4.12754         1.830
145  4.18905         1.710
146  4.25185         1.600
147  4.31525         1.500
148  4.37967         1.410
149  4.38797         1.400
150  4.56266         1.201
