Sensor Model:   CX-1050-SD-HT-1.4L
Serial Number:  X131164-Jakub_modif
Data Format:    4      (Log Ohms/Kelvin)
SetPoint Limit: 325.0      (Kelvin)
Temperature coefficient:  1 (Negative)
Number of Breakpoints:   150

No.   Units      Temperature (K)

  1  1.84265       331.479
  2  1.85009       325.000
  3  1.85719       319.000
  4  1.86383       313.500
  5  1.87062       308.000
  6  1.87755       302.500
  7  1.88464       297.000
  8  1.89188       291.500
  9  1.89929       286.000
 10  1.90687       280.500
 11  1.91462       275.000
 12  1.92255       269.500
 13  1.93066       264.000
 14  1.93897       258.500
 15  1.94748       253.000
 16  1.95540       248.000
 17  1.96349       243.000
 18  1.97176       238.000
 19  1.98022       233.000
 20  1.98888       228.000
 21  1.99774       223.000
 22  2.00680       218.000
 23  2.01609       213.000
 24  2.02560       208.000
 25  2.03535       203.000
 26  2.04534       198.000
 27  2.05559       193.000
 28  2.06610       188.000
 29  2.07690       183.000
 30  2.08686       178.500
 31  2.09706       174.000
 32  2.10752       169.500
 33  2.11825       165.000
 34  2.12926       160.500
 35  2.14056       156.000
 36  2.15216       151.500
 37  2.16409       147.000
 38  2.17637       142.500
 39  2.18900       138.000
 40  2.20055       134.000
 41  2.21241       130.000
 42  2.22462       126.000
 43  2.23717       122.000
 44  2.25010       118.000
 45  2.26343       114.000
 46  2.27720       110.000
 47  2.29141       106.000
 48  2.30427       102.500
 49  2.31371       100.000
 50  2.32335        97.500
 51  2.33322        95.000
 52  2.34332        92.500
 53  2.35368        90.000
 54  2.36431        87.500
 55  2.37523        85.000
 56  2.38644        82.500
 57  2.39797        80.000
 58  2.40984        77.500
 59  2.41960        75.500
 60  2.42959        73.500
 61  2.43984        71.500
 62  2.45036        69.500
 63  2.46116        67.500
 64  2.47227        65.500
 65  2.48371        63.500
 66  2.49548        61.500
 67  2.50824        59.400
 68  2.51953        57.600
 69  2.53115        55.800
 70  2.54313        54.000
 71  2.55549        52.200
 72  2.56826        50.400
 73  2.58147        48.600
 74  2.59514        46.800
 75  2.60932        45.000
 76  2.62240        43.400
 77  2.63591        41.800
 78  2.64992        40.200
 79  2.66446        38.600
 80  2.67959        37.000
 81  2.69433        35.500
 82  2.70966        34.000
 83  2.72565        32.500
 84  2.74121        31.100
 85  2.75743        29.700
 86  2.77439        28.300
 87  2.79088        27.000
 88  2.80812        25.700
 89  2.82482        24.500
 90  2.84231        23.300
 91  2.86071        22.100
 92  2.87849        21.000
 93  2.89377        20.100
 94  2.90613        19.400
 95  2.91802        18.750
 96  2.93034        18.100
 97  2.94314        17.450
 98  2.95543        16.850
 99  2.96819        16.250
100  2.98148        15.650
101  2.99418        15.100
102  3.00740        14.550
103  3.02119        14.000
104  3.03562        13.450
105  3.04936        12.950
106  3.06374        12.450
107  3.07884        11.950
108  3.09472        11.450
109  3.10978        11.000
110  3.12559        10.550
111  3.14228        10.100
112  3.15994         9.650
113  3.17657         9.250
114  3.19413         8.850
115  3.21277         8.450
116  3.23262         8.050
117  3.25113         7.700
118  3.27078         7.350
119  3.29178         7.000
120  3.31427         6.650
121  3.33850         6.300
122  3.36550         5.940
123  3.38986         5.640
124  3.41614         5.340
125  3.44467         5.040
126  3.47367         4.760
127  3.50525         4.480
128  3.53740         4.220
129  3.56430         4.020
130  3.58870         3.850
131  3.61479         3.680
132  3.64277         3.510
133  3.67110         3.350
134  3.70156         3.190
135  3.73240         3.040
136  3.76567         2.890
137  3.80181         2.740
138  3.83857         2.600
139  3.87859         2.460
140  3.91931         2.330
141  3.96380         2.200
142  4.01285         2.070
143  4.06282         1.950
144  4.11784         1.830
145  4.17898         1.710
146  4.24143         1.600
147  4.30452         1.500
148  4.36861         1.410
149  4.37685         1.400
150  4.55037         1.201
