Sensor Model:   CX-1030-CU-HT-0.3L
Serial Number:  X133322
Data Format:    4      (Log Ohms/Kelvin)
SetPoint Limit: 325.0      (Kelvin)
Temperature coefficient:  1 (Negative)
Number of Breakpoints:   178

No.   Units      Temperature (K)

  1  1.55029       330.134
  2  1.55500       325.000
  3  1.56066       319.000
  4  1.56596       313.500
  5  1.57138       308.000
  6  1.57691       302.500
  7  1.58257       297.000
  8  1.58835       291.500
  9  1.59426       286.000
 10  1.60031       280.500
 11  1.60650       275.000
 12  1.61283       269.500
 13  1.61931       264.000
 14  1.62595       258.500
 15  1.63274       253.000
 16  1.63970       247.500
 17  1.64617       242.500
 18  1.65278       237.500
 19  1.65954       232.500
 20  1.66646       227.500
 21  1.67353       222.500
 22  1.68077       217.500
 23  1.68818       212.500
 24  1.69576       207.500
 25  1.70353       202.500
 26  1.71148       197.500
 27  1.71963       192.500
 28  1.72798       187.500
 29  1.73654       182.500
 30  1.74533       177.500
 31  1.75434       172.500
 32  1.76360       167.500
 33  1.77215       163.000
 34  1.78090       158.500
 35  1.78989       154.000
 36  1.79910       149.500
 37  1.80856       145.000
 38  1.81828       140.500
 39  1.82827       136.000
 40  1.83855       131.500
 41  1.84913       127.000
 42  1.85881       123.000
 43  1.86875       119.000
 44  1.87898       115.000
 45  1.88950       111.000
 46  1.90035       107.000
 47  1.91155       103.000
 48  1.92020       100.000
 49  1.92757        97.500
 50  1.93509        95.000
 51  1.94280        92.500
 52  1.95068        90.000
 53  1.95875        87.500
 54  1.96701        85.000
 55  1.97548        82.500
 56  1.98418        80.000
 57  1.99312        77.500
 58  2.00230        75.000
 59  2.01176        72.500
 60  2.01953        70.500
 61  2.02749        68.500
 62  2.03566        66.500
 63  2.04404        64.500
 64  2.05264        62.500
 65  2.06149        60.500
 66  2.07014        58.600
 67  2.07950        56.600
 68  2.08915        54.600
 69  2.09912        52.600
 70  2.10837        50.800
 71  2.11791        49.000
 72  2.12775        47.200
 73  2.13792        45.400
 74  2.14843        43.600
 75  2.15933        41.800
 76  2.17063        40.000
 77  2.18170        38.300
 78  2.19251        36.700
 79  2.20371        35.100
 80  2.21536        33.500
 81  2.22671        32.000
 82  2.23851        30.500
 83  2.25081        29.000
 84  2.26279        27.600
 85  2.27528        26.200
 86  2.28740        24.900
 87  2.30007        23.600
 88  2.31336        22.300
 89  2.32626        21.100
 90  2.33754        20.100
 91  2.34635        19.350
 92  2.35484        18.650
 93  2.36301        18.000
 94  2.37146        17.350
 95  2.38022        16.700
 96  2.38933        16.050
 97  2.39808        15.450
 98  2.40717        14.850
 99  2.41666        14.250
100  2.42573        13.700
101  2.43519        13.150
102  2.44508        12.600
103  2.45451        12.100
104  2.46436        11.600
105  2.47470        11.100
106  2.48448        10.650
107  2.49473        10.200
108  2.50553         9.750
109  2.51693         9.300
110  2.52901         8.850
111  2.54041         8.450
112  2.55247         8.050
113  2.56529         7.650
114  2.57898         7.250
115  2.59179         6.900
116  2.60542         6.550
117  2.62003         6.200
118  2.63527         5.860
119  2.65070         5.540
120  2.66734         5.220
121  2.68422         4.920
122  2.70249         4.620
123  2.72105         4.340
124  2.74125         4.060
125  2.75780         3.850
126  2.77292         3.670
127  2.78820         3.500
128  2.80455         3.330
129  2.82109         3.170
130  2.83999         3.000
131  2.85912         2.840
132  2.87847         2.690
133  2.89944         2.540
134  2.92068         2.400
135  2.94374         2.260
136  2.96715         2.130
137  2.99268         2.000
138  3.02081         1.870
139  3.04953         1.750
140  3.07855         1.640
141  3.11060         1.530
142  3.14634         1.420
143  3.18275         1.320
144  3.22347         1.220
145  3.25085         1.160
146  3.27008         1.120
147  3.29042         1.080
148  3.31194         1.040
149  3.33479         1.000
150  3.35913         0.960
151  3.38510         0.920
152  3.40940         0.885
153  3.43522         0.850
154  3.46283         0.815
155  3.49245         0.780
156  3.52435         0.745
157  3.55382         0.715
158  3.58534         0.685
159  3.61932         0.655
160  3.65604         0.625
161  3.69588         0.595
162  3.73928         0.565
163  3.78677         0.535
164  3.83889         0.505
165  3.87877         0.484
166  3.91505         0.466
167  3.95370         0.448
168  3.99504         0.430
169  4.03937         0.412
170  4.08170         0.396
171  4.12718         0.380
172  4.17645         0.364
173  4.22321         0.350
174  4.27377         0.336
175  4.32889         0.322
176  4.38864         0.308
177  4.42509         0.300
178  4.63659         0.260
