Sensor Model:   CX-1030-CU-HT-0.3L
Serial Number:  X133273
Data Format:    4      (Log Ohms/Kelvin)
SetPoint Limit: 325.0      (Kelvin)
Temperature coefficient:  1 (Negative)
Number of Breakpoints:   178

No.   Units      Temperature (K)

  1  1.56207       330.085
  2  1.56662       325.000
  3  1.57211       319.000
  4  1.57726       313.500
  5  1.58251       308.000
  6  1.58788       302.500
  7  1.59337       297.000
  8  1.59898       291.500
  9  1.60472       286.000
 10  1.61058       280.500
 11  1.61658       275.000
 12  1.62272       269.500
 13  1.62900       264.000
 14  1.63543       258.500
 15  1.64201       253.000
 16  1.64874       247.500
 17  1.65564       242.000
 18  1.66206       237.000
 19  1.66862       232.000
 20  1.67533       227.000
 21  1.68219       222.000
 22  1.68921       217.000
 23  1.69639       212.000
 24  1.70374       207.000
 25  1.71127       202.000
 26  1.71898       197.000
 27  1.72687       192.000
 28  1.73496       187.000
 29  1.74325       182.000
 30  1.75176       177.000
 31  1.76048       172.000
 32  1.76943       167.000
 33  1.77770       162.500
 34  1.78617       158.000
 35  1.79485       153.500
 36  1.80375       149.000
 37  1.81288       144.500
 38  1.82226       140.000
 39  1.83190       135.500
 40  1.84181       131.000
 41  1.85201       126.500
 42  1.86134       122.500
 43  1.87092       118.500
 44  1.88078       114.500
 45  1.89093       110.500
 46  1.90139       106.500
 47  1.91218       102.500
 48  1.92052        99.500
 49  1.92762        97.000
 50  1.93487        94.500
 51  1.94228        92.000
 52  1.94985        89.500
 53  1.95760        87.000
 54  1.96555        84.500
 55  1.97369        82.000
 56  1.98205        79.500
 57  1.99064        77.000
 58  1.99947        74.500
 59  2.00855        72.000
 60  2.01603        70.000
 61  2.02367        68.000
 62  2.03152        66.000
 63  2.03957        64.000
 64  2.04784        62.000
 65  2.05720        59.800
 66  2.06597        57.800
 67  2.07501        55.800
 68  2.08432        53.800
 69  2.09394        51.800
 70  2.10288        50.000
 71  2.11208        48.200
 72  2.12159        46.400
 73  2.13141        44.600
 74  2.14157        42.800
 75  2.15210        41.000
 76  2.16303        39.200
 77  2.17374        37.500
 78  2.18419        35.900
 79  2.19504        34.300
 80  2.20632        32.700
 81  2.21731        31.200
 82  2.22875        29.700
 83  2.23987        28.300
 84  2.25145        26.900
 85  2.26355        25.500
 86  2.27531        24.200
 87  2.28763        22.900
 88  2.29957        21.700
 89  2.31210        20.500
 90  2.32198        19.600
 91  2.32993        18.900
 92  2.33816        18.200
 93  2.34608        17.550
 94  2.35429        16.900
 95  2.36282        16.250
 96  2.37100        15.650
 97  2.37950        15.050
 98  2.38836        14.450
 99  2.39683        13.900
100  2.40565        13.350
101  2.41488        12.800
102  2.42365        12.300
103  2.43282        11.800
104  2.44243        11.300
105  2.45253        10.800
106  2.46211        10.350
107  2.47217         9.900
108  2.48278         9.450
109  2.49401         9.000
110  2.50460         8.600
111  2.51578         8.200
112  2.52765         7.800
113  2.54032         7.400
114  2.55215         7.050
115  2.56471         6.700
116  2.57815         6.350
117  2.59343         5.980
118  2.60768         5.660
119  2.62299         5.340
120  2.63850         5.040
121  2.65525         4.740
122  2.67222         4.460
123  2.69065         4.180
124  2.70717         3.950
125  2.72099         3.770
126  2.73575         3.590
127  2.75070         3.420
128  2.76576         3.260
129  2.78193         3.100
130  2.80038         2.930
131  2.81788         2.780
132  2.83676         2.630
133  2.85724         2.480
134  2.87801         2.340
135  2.90062         2.200
136  2.92361         2.070
137  2.94877         1.940
138  2.97438         1.820
139  3.00257         1.700
140  3.03395         1.580
141  3.06609         1.470
142  3.10203         1.360
143  3.13887         1.260
144  3.16551         1.195
145  3.18510         1.150
146  3.20355         1.110
147  3.22301         1.070
148  3.24363         1.030
149  3.26552         0.990
150  3.28881         0.950
151  3.31367         0.910
152  3.33690         0.875
153  3.36158         0.840
154  3.38796         0.805
155  3.41622         0.770
156  3.44662         0.735
157  3.47469         0.705
158  3.50470         0.675
159  3.53703         0.645
160  3.57199         0.615
161  3.60992         0.585
162  3.65131         0.555
163  3.69668         0.525
164  3.72968         0.505
165  3.75923         0.488
166  3.79250         0.470
167  3.82792         0.452
168  3.86574         0.434
169  3.90619         0.416
170  3.94955         0.398
171  3.99106         0.382
172  4.03556         0.366
173  4.08367         0.350
174  4.12947         0.336
175  4.17911         0.322
176  4.22568         0.310
177  4.26764         0.300
178  4.46090         0.260
