Sensor Model:   CX-1030-CU-HT-0.3L
Serial Number:  X133320
Data Format:    4      (Log Ohms/Kelvin)
SetPoint Limit: 325.0      (Kelvin)
Temperature coefficient:  1 (Negative)
Number of Breakpoints:   178

No.   Units      Temperature (K)

  1  1.53894       330.133
  2  1.54339       325.000
  3  1.54874       319.000
  4  1.55376       313.500
  5  1.55888       308.000
  6  1.56411       302.500
  7  1.56945       297.000
  8  1.57492       291.500
  9  1.58051       286.000
 10  1.58622       280.500
 11  1.59207       275.000
 12  1.59805       269.500
 13  1.60417       264.000
 14  1.61043       258.500
 15  1.61684       253.000
 16  1.62340       247.500
 17  1.63012       242.000
 18  1.63637       237.000
 19  1.64276       232.000
 20  1.64929       227.000
 21  1.65597       222.000
 22  1.66281       217.000
 23  1.66980       212.000
 24  1.67696       207.000
 25  1.68428       202.000
 26  1.69179       197.000
 27  1.69947       192.000
 28  1.70735       187.000
 29  1.71542       182.000
 30  1.72369       177.000
 31  1.73218       172.000
 32  1.74090       167.000
 33  1.74984       162.000
 34  1.75811       157.500
 35  1.76657       153.000
 36  1.77525       148.500
 37  1.78416       144.000
 38  1.79331       139.500
 39  1.80271       135.000
 40  1.81237       130.500
 41  1.82231       126.000
 42  1.83140       122.000
 43  1.84074       118.000
 44  1.85034       114.000
 45  1.86022       110.000
 46  1.87041       106.000
 47  1.88091       102.000
 48  1.88903        99.000
 49  1.89595        96.500
 50  1.90301        94.000
 51  1.91023        91.500
 52  1.91761        89.000
 53  1.92517        86.500
 54  1.93291        84.000
 55  1.94085        81.500
 56  1.94900        79.000
 57  1.95736        76.500
 58  1.96596        74.000
 59  1.97481        71.500
 60  1.98209        69.500
 61  1.98954        67.500
 62  1.99718        65.500
 63  2.00502        63.500
 64  2.01307        61.500
 65  2.02177        59.400
 66  2.03030        57.400
 67  2.03909        55.400
 68  2.04815        53.400
 69  2.05750        51.400
 70  2.06619        49.600
 71  2.07515        47.800
 72  2.08439        46.000
 73  2.09394        44.200
 74  2.10383        42.400
 75  2.11407        40.600
 76  2.12409        38.900
 77  2.13387        37.300
 78  2.14399        35.700
 79  2.15450        34.100
 80  2.16542        32.500
 81  2.17607        31.000
 82  2.18714        29.500
 83  2.19791        28.100
 84  2.20913        26.700
 85  2.22084        25.300
 86  2.23223        24.000
 87  2.24414        22.700
 88  2.25569        21.500
 89  2.26678        20.400
 90  2.27524        19.600
 91  2.28289        18.900
 92  2.29078        18.200
 93  2.29838        17.550
 94  2.30625        16.900
 95  2.31443        16.250
 96  2.32228        15.650
 97  2.33042        15.050
 98  2.33891        14.450
 99  2.34702        13.900
100  2.35547        13.350
101  2.36430        12.800
102  2.37270        12.300
103  2.38146        11.800
104  2.39066        11.300
105  2.40032        10.800
106  2.40947        10.350
107  2.41908         9.900
108  2.42922         9.450
109  2.43995         9.000
110  2.45005         8.600
111  2.46072         8.200
112  2.47204         7.800
113  2.48411         7.400
114  2.49539         7.050
115  2.50735         6.700
116  2.52015         6.350
117  2.53469         5.980
118  2.54824         5.660
119  2.56280         5.340
120  2.57753         5.040
121  2.59343         4.740
122  2.60954         4.460
123  2.62701         4.180
124  2.64267         3.950
125  2.65576         3.770
126  2.66973         3.590
127  2.68387         3.420
128  2.69810         3.260
129  2.71337         3.100
130  2.73078         2.930
131  2.74727         2.780
132  2.76508         2.630
133  2.78439         2.480
134  2.80397         2.340
135  2.82526         2.200
136  2.84688         2.070
137  2.87051         1.940
138  2.89452         1.820
139  2.92089         1.700
140  2.95017         1.580
141  2.98009         1.470
142  3.01345         1.360
143  3.04755         1.260
144  3.07215         1.195
145  3.09022         1.150
146  3.10723         1.110
147  3.12515         1.070
148  3.14413         1.030
149  3.16425         0.990
150  3.18566         0.950
151  3.20850         0.910
152  3.22984         0.875
153  3.25250         0.840
154  3.27670         0.805
155  3.30263         0.770
156  3.33050         0.735
157  3.36059         0.700
158  3.38847         0.670
159  3.41834         0.640
160  3.45063         0.610
161  3.48558         0.580
162  3.52363         0.550
163  3.56520         0.520
164  3.60152         0.496
165  3.63059         0.478
166  3.66143         0.460
167  3.69433         0.442
168  3.72952         0.424
169  3.76728         0.406
170  3.80342         0.390
171  3.84223         0.374
172  3.88422         0.358
173  3.92401         0.344
174  3.96688         0.330
175  4.01334         0.316
176  4.06336         0.302
177  4.07109         0.300
178  4.24118         0.260
