Sensor Model:   CX-1050-AA-1.4L
Serial Number:  X14130
Data Format:    4      (Log Ohms/Kelvin)
SetPoint Limit: 325.      (Kelvin)
Temperature coefficient:  1 (Negative)
Number of Breakpoints:   148

No.   Units      Temperature (K)

  1  1.72913       325.000
  2  1.73648       319.000
  3  1.74337       313.500
  4  1.75043       308.000
  5  1.75765       302.500
  6  1.76505       297.000
  7  1.77194       292.000
  8  1.77897       287.000
  9  1.78617       282.000
 10  1.79352       277.000
 11  1.80105       272.000
 12  1.80875       267.000
 13  1.81664       262.000
 14  1.82470       257.000
 15  1.83296       252.000
 16  1.84142       247.000
 17  1.85009       242.000
 18  1.85897       237.000
 19  1.86807       232.000
 20  1.87740       227.000
 21  1.88696       222.000
 22  1.89678       217.000
 23  1.90685       212.000
 24  1.91718       207.000
 25  1.92780       202.000
 26  1.93761       197.500
 27  1.94765       193.000
 28  1.95795       188.500
 29  1.96851       184.000
 30  1.97934       179.500
 31  1.99047       175.000
 32  2.00189       170.500
 33  2.01362       166.000
 34  2.02569       161.500
 35  2.03809       157.000
 36  2.05086       152.500
 37  2.06401       148.000
 38  2.07604       144.000
 39  2.08840       140.000
 40  2.10110       136.000
 41  2.11417       132.000
 42  2.12763       128.000
 43  2.14150       124.000
 44  2.15580       120.000
 45  2.17057       116.000
 46  2.18583       112.000
 47  2.19962       108.500
 48  2.21382       105.000
 49  2.22849       101.500
 50  2.23928        99.000
 51  2.25031        96.500
 52  2.26162        94.000
 53  2.27322        91.500
 54  2.28513        89.000
 55  2.29737        86.500
 56  2.30995        84.000
 57  2.32289        81.500
 58  2.33622        79.000
 59  2.34718        77.000
 60  2.35840        75.000
 61  2.36992        73.000
 62  2.38176        71.000
 63  2.39392        69.000
 64  2.40643        67.000
 65  2.41930        65.000
 66  2.43257        63.000
 67  2.44625        61.000
 68  2.46038        59.000
 69  2.47351        57.200
 70  2.48705        55.400
 71  2.50102        53.600
 72  2.51546        51.800
 73  2.53040        50.000
 74  2.54588        48.200
 75  2.56193        46.400
 76  2.57674        44.800
 77  2.59205        43.200
 78  2.60793        41.600
 79  2.62547        39.900
 80  2.64265        38.300
 81  2.65942        36.800
 82  2.67686        35.300
 83  2.69503        33.800
 84  2.71273        32.400
 85  2.73116        31.000
 86  2.75044        29.600
 87  2.76916        28.300
 88  2.78872        27.000
 89  2.80923        25.700
 90  2.82911        24.500
 91  2.84995        23.300
 92  2.87191        22.100
 93  2.89314        21.000
 94  2.91139        20.100
 95  2.92617        19.400
 96  2.94038        18.750
 97  2.95513        18.100
 98  2.97045        17.450
 99  2.98515        16.850
100  3.00043        16.250
101  3.01633        15.650
102  3.03153        15.100
103  3.04735        14.550
104  3.06384        14.000
105  3.08102        13.450
106  3.09737        12.950
107  3.11447        12.450
108  3.13240        11.950
109  3.15122        11.450
110  3.17103        10.950
111  3.18984        10.500
112  3.20961        10.050
113  3.23050         9.600
114  3.25262         9.150
115  3.27348         8.750
116  3.29552         8.350
117  3.31896         7.950
118  3.34394         7.550
119  3.36731         7.200
120  3.39213         6.850
121  3.41871         6.500
122  3.44727         6.150
123  3.47628         5.820
124  3.50664         5.500
125  3.53742         5.200
126  3.57073         4.900
127  3.60458         4.620
128  3.64139         4.340
129  3.67886         4.080
130  3.71019         3.880
131  3.74035         3.700
132  3.77090         3.530
133  3.80366         3.360
134  3.83687         3.200
135  3.87259         3.040
136  3.90880         2.890
137  3.94789         2.740
138  3.99040         2.590
139  4.03368         2.450
140  4.07744         2.320
141  4.12515         2.190
142  4.17757         2.060
143  4.23097         1.940
144  4.28981         1.820
145  4.35531         1.700
146  4.42235         1.590
147  4.49696         1.480
148  4.55747         1.400
