Sensor Model:   CX-1050-AA-1.4L
Serial Number:  X14126
Data Format:    4      (Log Ohms/Kelvin)
SetPoint Limit: 325.      (Kelvin)
Temperature coefficient:  1 (Negative)
Number of Breakpoints:   149

No.   Units      Temperature (K)

  1  1.72583       325.000
  2  1.73246       319.500
  3  1.73862       314.500
  4  1.74491       309.500
  5  1.75135       304.500
  6  1.75792       299.500
  7  1.76465       294.500
  8  1.77152       289.500
  9  1.77855       284.500
 10  1.78574       279.500
 11  1.79310       274.500
 12  1.80063       269.500
 13  1.80834       264.500
 14  1.81622       259.500
 15  1.82430       254.500
 16  1.83257       249.500
 17  1.84104       244.500
 18  1.84972       239.500
 19  1.85862       234.500
 20  1.86773       229.500
 21  1.87708       224.500
 22  1.88667       219.500
 23  1.89651       214.500
 24  1.90660       209.500
 25  1.91697       204.500
 26  1.92654       200.000
 27  1.93634       195.500
 28  1.94640       191.000
 29  1.95670       186.500
 30  1.96728       182.000
 31  1.97813       177.500
 32  1.98927       173.000
 33  2.00072       168.500
 34  2.01248       164.000
 35  2.02458       159.500
 36  2.03703       155.000
 37  2.04985       150.500
 38  2.06157       146.500
 39  2.07360       142.500
 40  2.08597       138.500
 41  2.09870       134.500
 42  2.11179       130.500
 43  2.12528       126.500
 44  2.13918       122.500
 45  2.15352       118.500
 46  2.16832       114.500
 47  2.18363       110.500
 48  2.19747       107.000
 49  2.21172       103.500
 50  2.22434       100.500
 51  2.23512        98.000
 52  2.24615        95.500
 53  2.25748        93.000
 54  2.26910        90.500
 55  2.28103        88.000
 56  2.29330        85.500
 57  2.30594        83.000
 58  2.31894        80.500
 59  2.33233        78.000
 60  2.34335        76.000
 61  2.35463        74.000
 62  2.36622        72.000
 63  2.37812        70.000
 64  2.39036        68.000
 65  2.40295        66.000
 66  2.41591        64.000
 67  2.42928        62.000
 68  2.44306        60.000
 69  2.45586        58.200
 70  2.46905        56.400
 71  2.48265        54.600
 72  2.49670        52.800
 73  2.51122        51.000
 74  2.52626        49.200
 75  2.54183        47.400
 76  2.55619        45.800
 77  2.57102        44.200
 78  2.58639        42.600
 79  2.60234        41.000
 80  2.61890        39.400
 81  2.63504        37.900
 82  2.65182        36.400
 83  2.66928        34.900
 84  2.68627        33.500
 85  2.70395        32.100
 86  2.72240        30.700
 87  2.74170        29.300
 88  2.76046        28.000
 89  2.78007        26.700
 90  2.80065        25.400
 91  2.82060        24.200
 92  2.84153        23.000
 93  2.86359        21.800
 94  2.88492        20.700
 95  2.90223        19.850
 96  2.91595        19.200
 97  2.93015        18.550
 98  2.94487        17.900
 99  2.96017        17.250
100  2.97484        16.650
101  2.99009        16.050
102  3.00598        15.450
103  3.02255        14.850
104  3.03844        14.300
105  3.05359        13.800
106  3.07103        13.250
107  3.08924        12.700
108  3.10651        12.200
109  3.12464        11.700
110  3.14372        11.200
111  3.16180        10.750
112  3.18076        10.300
113  3.20076         9.850
114  3.22189         9.400
115  3.24178         9.000
116  3.26275         8.600
117  3.28500         8.200
118  3.30864         7.800
119  3.33390         7.400
120  3.35754         7.050
121  3.38269         6.700
122  3.40967         6.350
123  3.44042         5.980
124  3.46919         5.660
125  3.49825         5.360
126  3.52962         5.060
127  3.56371         4.760
128  3.59841         4.480
129  3.63350         4.220
130  3.66280         4.020
131  3.69087         3.840
132  3.72097         3.660
133  3.75145         3.490
134  3.78417         3.320
135  3.81735         3.160
136  3.85307         3.000
137  3.88930         2.850
138  3.92845         2.700
139  3.96815         2.560
140  4.01122         2.420
141  4.05835         2.280
142  4.10638         2.150
143  4.15494         2.030
144  4.20822         1.910
145  4.26720         1.790
146  4.32727         1.680
147  4.39390         1.570
148  4.46851         1.460
149  4.51379         1.400
