Sensor Model:   CX-1050-BC-HT-1.4L
Serial Number:  X141457
Data Format:    4      (Log Ohms/Kelvin)
SetPoint Limit: 325.0      (Kelvin)
Temperature coefficient:  1 (Negative)
Number of Breakpoints:   149

No.   Units      Temperature (K)

  1  1.80543       330.080
  2  1.81175       325.000
  3  1.81943       319.000
  4  1.82662       313.500
  5  1.83397       308.000
  6  1.84148       302.500
  7  1.84915       297.000
  8  1.85699       291.500
  9  1.86501       286.000
 10  1.87321       280.500
 11  1.88159       275.000
 12  1.89017       269.500
 13  1.89896       264.000
 14  1.90795       258.500
 15  1.91715       253.000
 16  1.92658       247.500
 17  1.93535       242.500
 18  1.94432       237.500
 19  1.95349       232.500
 20  1.96287       227.500
 21  1.97247       222.500
 22  1.98230       217.500
 23  1.99236       212.500
 24  2.00267       207.500
 25  2.01323       202.500
 26  2.02405       197.500
 27  2.03515       192.500
 28  2.04653       187.500
 29  2.05822       182.500
 30  2.07021       177.500
 31  2.08129       173.000
 32  2.09264       168.500
 33  2.10428       164.000
 34  2.11622       159.500
 35  2.12847       155.000
 36  2.14106       150.500
 37  2.15400       146.000
 38  2.16731       141.500
 39  2.18100       137.000
 40  2.19352       133.000
 41  2.20638       129.000
 42  2.21960       125.000
 43  2.23320       121.000
 44  2.24721       117.000
 45  2.26165       113.000
 46  2.27655       109.000
 47  2.29194       105.000
 48  2.30586       101.500
 49  2.31607        99.000
 50  2.32648        96.500
 51  2.33715        94.000
 52  2.34807        91.500
 53  2.35927        89.000
 54  2.37074        86.500
 55  2.38252        84.000
 56  2.39461        81.500
 57  2.40705        79.000
 58  2.41984        76.500
 59  2.43037        74.500
 60  2.44113        72.500
 61  2.45218        70.500
 62  2.46351        68.500
 63  2.47514        66.500
 64  2.48710        64.500
 65  2.49941        62.500
 66  2.51208        60.500
 67  2.52447        58.600
 68  2.53791        56.600
 69  2.55180        54.600
 70  2.56471        52.800
 71  2.57802        51.000
 72  2.59177        49.200
 73  2.60598        47.400
 74  2.62069        45.600
 75  2.63594        43.800
 76  2.65000        42.200
 77  2.66453        40.600
 78  2.67960        39.000
 79  2.69524        37.400
 80  2.71150        35.800
 81  2.72736        34.300
 82  2.74386        32.800
 83  2.76107        31.300
 84  2.77784        29.900
 85  2.79532        28.500
 86  2.81231        27.200
 87  2.83004        25.900
 88  2.84863        24.600
 89  2.86666        23.400
 90  2.88556        22.200
 91  2.90550        21.000
 92  2.92125        20.100
 93  2.93397        19.400
 94  2.94619        18.750
 95  2.95885        18.100
 96  2.97200        17.450
 97  2.98460        16.850
 98  2.99769        16.250
 99  3.01130        15.650
100  3.02431        15.100
101  3.03784        14.550
102  3.05196        14.000
103  3.06671        13.450
104  3.08076        12.950
105  3.09544        12.450
106  3.11085        11.950
107  3.12704        11.450
108  3.14238        11.000
109  3.15849        10.550
110  3.17548        10.100
111  3.19345         9.650
112  3.21038         9.250
113  3.22823         8.850
114  3.24719         8.450
115  3.26737         8.050
116  3.28619         7.700
117  3.30616         7.350
118  3.32750         7.000
119  3.35035         6.650
120  3.37495         6.300
121  3.40235         5.940
122  3.42707         5.640
123  3.45372         5.340
124  3.48263         5.040
125  3.51200         4.760
126  3.54396         4.480
127  3.57647         4.220
128  3.60366         4.020
129  3.62831         3.850
130  3.65464         3.680
131  3.68290         3.510
132  3.71149         3.350
133  3.74223         3.190
134  3.77336         3.040
135  3.80695         2.890
136  3.84344         2.740
137  3.88056         2.600
138  3.92099         2.460
139  3.96211         2.330
140  4.00702         2.200
141  4.05646         2.070
142  4.10676         1.950
143  4.16201         1.830
144  4.22329         1.710
145  4.28584         1.600
146  4.34911         1.500
147  4.41366         1.410
148  4.42202         1.400
149  4.59793         1.201
