Sensor Model:   CX-1050-AA-1.4L
Serial Number:  X14129
Data Format:    4      (Log Ohms/Kelvin)
SetPoint Limit: 325.      (Kelvin)
Temperature coefficient:  1 (Negative)
Number of Breakpoints:   148

No.   Units      Temperature (K)

  1  1.71730       325.000
  2  1.72456       319.000
  3  1.73138       313.500
  4  1.73836       308.000
  5  1.74550       302.500
  6  1.75282       297.000
  7  1.75963       292.000
  8  1.76659       287.000
  9  1.77371       282.000
 10  1.78099       277.000
 11  1.78844       272.000
 12  1.79605       267.000
 13  1.80385       262.000
 14  1.81183       257.000
 15  1.82000       252.000
 16  1.82837       247.000
 17  1.83694       242.000
 18  1.84573       237.000
 19  1.85473       232.000
 20  1.86396       227.000
 21  1.87342       222.000
 22  1.88312       217.000
 23  1.89308       212.000
 24  1.90331       207.000
 25  1.91381       202.000
 26  1.92350       197.500
 27  1.93344       193.000
 28  1.94362       188.500
 29  1.95406       184.000
 30  1.96478       179.500
 31  1.97578       175.000
 32  1.98707       170.500
 33  1.99868       166.000
 34  2.01060       161.500
 35  2.02287       157.000
 36  2.03549       152.500
 37  2.04849       148.000
 38  2.06038       144.000
 39  2.07258       140.000
 40  2.08513       136.000
 41  2.09805       132.000
 42  2.11134       128.000
 43  2.12503       124.000
 44  2.13916       120.000
 45  2.15373       116.000
 46  2.16879       112.000
 47  2.18240       108.500
 48  2.19641       105.000
 49  2.21088       101.500
 50  2.22153        99.000
 51  2.23241        96.500
 52  2.24357        94.000
 53  2.25502        91.500
 54  2.26678        89.000
 55  2.27885        86.500
 56  2.29127        84.000
 57  2.30406        81.500
 58  2.31721        79.000
 59  2.32804        77.000
 60  2.33911        75.000
 61  2.35048        73.000
 62  2.36215        71.000
 63  2.37414        69.000
 64  2.38646        67.000
 65  2.39916        65.000
 66  2.41223        63.000
 67  2.42571        61.000
 68  2.43963        59.000
 69  2.45256        57.200
 70  2.46589        55.400
 71  2.47965        53.600
 72  2.49387        51.800
 73  2.50858        50.000
 74  2.52382        48.200
 75  2.53962        46.400
 76  2.55419        44.800
 77  2.56926        43.200
 78  2.58489        41.600
 79  2.60214        39.900
 80  2.61905        38.300
 81  2.63555        36.800
 82  2.65269        35.300
 83  2.67057        33.800
 84  2.68797        32.400
 85  2.70610        31.000
 86  2.72504        29.600
 87  2.74344        28.300
 88  2.76266        27.000
 89  2.78282        25.700
 90  2.80234        24.500
 91  2.82281        23.300
 92  2.84437        22.100
 93  2.86521        21.000
 94  2.88312        20.100
 95  2.89762        19.400
 96  2.91157        18.750
 97  2.92603        18.100
 98  2.94106        17.450
 99  2.95548        16.850
100  2.97045        16.250
101  2.98605        15.650
102  3.00095        15.100
103  3.01646        14.550
104  3.03262        14.000
105  3.04948        13.450
106  3.06551        12.950
107  3.08226        12.450
108  3.09983        11.950
109  3.11826        11.450
110  3.13768        10.950
111  3.15610        10.500
112  3.17546        10.050
113  3.19590         9.600
114  3.21756         9.150
115  3.23797         8.750
116  3.25954         8.350
117  3.28247         7.950
118  3.30691         7.550
119  3.32976         7.200
120  3.35403         6.850
121  3.38001         6.500
122  3.40792         6.150
123  3.43627         5.820
124  3.46594         5.500
125  3.49600         5.200
126  3.52854         4.900
127  3.56160         4.620
128  3.59754         4.340
129  3.63412         4.080
130  3.66469         3.880
131  3.69413         3.700
132  3.72394         3.530
133  3.75590         3.360
134  3.78829         3.200
135  3.82313         3.040
136  3.85843         2.890
137  3.89652         2.740
138  3.93794         2.590
139  3.98007         2.450
140  4.02266         2.320
141  4.06906         2.190
142  4.12001         2.060
143  4.17190         1.940
144  4.22907         1.820
145  4.29272         1.700
146  4.35791         1.590
147  4.43055         1.480
148  4.48954         1.400
