Sensor Model:   CX-1050-AA-1.4L
Serial Number:  X14231
Data Format:    4      (Log Ohms/Kelvin)
SetPoint Limit: 325.      (Kelvin)
Temperature coefficient:  1 (Negative)
Number of Breakpoints:   149

No.   Units      Temperature (K)

  1  1.72504       325.000
  2  1.73221       319.000
  3  1.73894       313.500
  4  1.74583       308.000
  5  1.75288       302.500
  6  1.76010       297.000
  7  1.76681       292.000
  8  1.77368       287.000
  9  1.78070       282.000
 10  1.78788       277.000
 11  1.79523       272.000
 12  1.80275       267.000
 13  1.81045       262.000
 14  1.81833       257.000
 15  1.82640       252.000
 16  1.83467       247.000
 17  1.84314       242.000
 18  1.85183       237.000
 19  1.86073       232.000
 20  1.86986       227.000
 21  1.87923       222.000
 22  1.88884       217.000
 23  1.89871       212.000
 24  1.90884       207.000
 25  1.91819       202.500
 26  1.92777       198.000
 27  1.93759       193.500
 28  1.94766       189.000
 29  1.95798       184.500
 30  1.96858       180.000
 31  1.97945       175.500
 32  1.99062       171.000
 33  2.00209       166.500
 34  2.01388       162.000
 35  2.02600       157.500
 36  2.03848       153.000
 37  2.05132       148.500
 38  2.06308       144.500
 39  2.07515       140.500
 40  2.08756       136.500
 41  2.10033       132.500
 42  2.11348       128.500
 43  2.12703       124.500
 44  2.14101       120.500
 45  2.15544       116.500
 46  2.17035       112.500
 47  2.18384       109.000
 48  2.19772       105.500
 49  2.21207       102.000
 50  2.22262        99.500
 51  2.23340        97.000
 52  2.24445        94.500
 53  2.25579        92.000
 54  2.26742        89.500
 55  2.27936        87.000
 56  2.29163        84.500
 57  2.30425        82.000
 58  2.31463        80.000
 59  2.32525        78.000
 60  2.33615        76.000
 61  2.34732        74.000
 62  2.35878        72.000
 63  2.37055        70.000
 64  2.38266        68.000
 65  2.39511        66.000
 66  2.40794        64.000
 67  2.42116        62.000
 68  2.43481        60.000
 69  2.44748        58.200
 70  2.46053        56.400
 71  2.47400        54.600
 72  2.48792        52.800
 73  2.50230        51.000
 74  2.51719        49.200
 75  2.53262        47.400
 76  2.54684        45.800
 77  2.56154        44.200
 78  2.57677        42.600
 79  2.59257        41.000
 80  2.60898        39.400
 81  2.62497        37.900
 82  2.64158        36.400
 83  2.65887        34.900
 84  2.67568        33.500
 85  2.69317        32.100
 86  2.71142        30.700
 87  2.73050        29.300
 88  2.74904        28.000
 89  2.76841        26.700
 90  2.78874        25.400
 91  2.80845        24.200
 92  2.82913        23.000
 93  2.85092        21.800
 94  2.87200        20.700
 95  2.88912        19.850
 96  2.90271        19.200
 97  2.91677        18.550
 98  2.93136        17.900
 99  2.94653        17.250
100  2.96109        16.650
101  2.97622        16.050
102  2.99199        15.450
103  3.00707        14.900
104  3.02276        14.350
105  3.03913        13.800
106  3.05621        13.250
107  3.07249        12.750
108  3.08951        12.250
109  3.10736        11.750
110  3.12612        11.250
111  3.14389        10.800
112  3.16254        10.350
113  3.18220         9.900
114  3.20296         9.450
115  3.22498         9.000
116  3.24576         8.600
117  3.26774         8.200
118  3.29114         7.800
119  3.31293         7.450
120  3.33605         7.100
121  3.36071         6.750
122  3.38712         6.400
123  3.41552         6.050
124  3.44440         5.720
125  3.47468         5.400
126  3.50541         5.100
127  3.53646         4.820
128  3.57010         4.540
129  3.60684         4.260
130  3.64131         4.020
131  3.67076         3.830
132  3.69893         3.660
133  3.72904         3.490
134  3.76140         3.320
135  3.79420         3.160
136  3.82951         3.000
137  3.86533         2.850
138  3.90402         2.700
139  3.94327         2.560
140  3.98584         2.420
141  4.03243         2.280
142  4.07991         2.150
143  4.12792         2.030
144  4.18061         1.910
145  4.23892         1.790
146  4.29833         1.680
147  4.36423         1.570
148  4.43801         1.460
149  4.48278         1.400
