Sensor Model:   CX-1050-AA-1.4L
Serial Number:  X143499-Jakub_modif
Data Format:    4      (Log Ohms/Kelvin)
SetPoint Limit: 325.      (Kelvin)
Temperature coefficient:  1 (Negative)
Number of Breakpoints:   149

No.   Units  Temperature (K)

1	1.80227	331.524
2	1.81075	325
3	1.81876	319
4	1.82626	313.5
5	1.83392	308
6	1.84174	302.5
7	1.84974	297
8	1.85791	291.5
9	1.86627	286
10	1.87481	280.5
11	1.88355	275
12	1.89249	269.5
13	1.90164	264
14	1.91101	258.5
15	1.9206	253
16	1.93042	247.5
17	1.93956	242.5
18	1.9489	237.5
19	1.95845	232.5
20	1.96823	227.5
21	1.97823	222.5
22	1.98847	217.5
23	1.99895	212.5
24	2.00969	207.5
25	2.02069	202.5
26	2.03197	197.5
27	2.04354	192.5
28	2.0554	187.5
29	2.06758	182.5
30	2.08008	177.5
31	2.09162	173
32	2.10345	168.5
33	2.11558	164
34	2.12802	159.5
35	2.14079	155
36	2.15391	150.5
37	2.16738	146
38	2.18124	141.5
39	2.1955	137
40	2.21018	132.5
41	2.22363	128.5
42	2.23743	124.5
43	2.25164	120.5
44	2.26627	116.5
45	2.28135	112.5
46	2.29692	108.5
47	2.31299	104.5
48	2.32753	101
49	2.3382	98.5
50	2.34908	96
51	2.36022	93.5
52	2.37164	91
53	2.38333	88.5
54	2.39532	86
55	2.40762	83.5
56	2.42026	81
57	2.43324	78.5
58	2.4466	76
59	2.45759	74
60	2.46884	72
61	2.48038	70
62	2.49221	68
63	2.50437	66
64	2.51686	64
65	2.52972	62
66	2.54295	60
67	2.55659	58
68	2.57067	56
69	2.58374	54.2
70	2.5972	52.4
71	2.6111	50.6
72	2.62544	48.8
73	2.64028	47
74	2.65564	45.2
75	2.67157	43.4
76	2.68626	41.8
77	2.70144	40.2
78	2.71719	38.6
79	2.73355	37
80	2.74948	35.5
81	2.76603	34
82	2.78327	32.5
83	2.80004	31.1
84	2.8175	29.7
85	2.83575	28.3
86	2.85347	27
87	2.872	25.7
88	2.89144	24.4
89	2.91031	23.2
90	2.93012	22
91	2.94927	20.9
92	2.96388	20.1
93	2.97615	19.45
94	2.98885	18.8
95	3.00202	18.15
96	3.01569	17.5
97	3.02882	16.9
98	3.04244	16.3
99	3.05664	15.7
100	3.07021	15.15
101	3.08434	14.6
102	3.09909	14.05
103	3.11452	13.5
104	3.12921	13
105	3.14456	12.5
106	3.16067	12
107	3.17763	11.5
108	3.19371	11.05
109	3.2106	10.6
110	3.22844	10.15
111	3.24732	9.7
112	3.26512	9.3
113	3.28392	8.9
114	3.30389	8.5
115	3.32517	8.1
116	3.34503	7.75
117	3.36613	7.4
118	3.38868	7.05
119	3.41285	6.7
120	3.43889	6.35
121	3.46296	6.05
122	3.48782	5.76
123	3.51558	5.46
124	3.54564	5.16
125	3.57617	4.88
126	3.60936	4.6
127	3.64307	4.34
128	3.67989	4.08
129	3.71092	3.88
130	3.73917	3.71
131	3.76947	3.54
132	3.80017	3.38
133	3.83319	3.22
134	3.86664	3.07
135	3.90274	2.92
136	3.94196	2.77
137	3.9818	2.63
138	4.02512	2.49
139	4.07256	2.35
140	4.12089	2.22
141	4.17384	2.09
142	4.22779	1.97
143	4.2872	1.85
144	4.34776	1.74
145	4.40883	1.64
146	4.4771	1.54
147	4.56124	1.43
148	4.58681	1.4
149	4.77729	1.199
