Sensor Model:   CX-1050-AA-1.4L
Serial Number:  X15601
Data Format:    4      (Log Ohms/Kelvin)
SetPoint Limit: 325.      (Kelvin)
Temperature coefficient:  1 (Negative)
Number of Breakpoints:   146

No.   Units      Temperature (K)

  1  1.70408       325.000
  2  1.71108       319.000
  3  1.71764       313.500
  4  1.72437       308.000
  5  1.73125       302.500
  6  1.73831       297.000
  7  1.74487       292.000
  8  1.75157       287.000
  9  1.75843       282.000
 10  1.76544       277.000
 11  1.77261       272.000
 12  1.77994       267.000
 13  1.78744       262.000
 14  1.79512       257.000
 15  1.80298       252.000
 16  1.81102       247.000
 17  1.81925       242.000
 18  1.82768       237.000
 19  1.83632       232.000
 20  1.84517       227.000
 21  1.85424       222.000
 22  1.86354       217.000
 23  1.87307       212.000
 24  1.88285       207.000
 25  1.89289       202.000
 26  1.90319       197.000
 27  1.91270       192.500
 28  1.92245       188.000
 29  1.93243       183.500
 30  1.94268       179.000
 31  1.95318       174.500
 32  1.96396       170.000
 33  1.97503       165.500
 34  1.98640       161.000
 35  1.99809       156.500
 36  2.01010       152.000
 37  2.02247       147.500
 38  2.03520       143.000
 39  2.04831       138.500
 40  2.06031       134.500
 41  2.07264       130.500
 42  2.08532       126.500
 43  2.09838       122.500
 44  2.11183       118.500
 45  2.12571       114.500
 46  2.14003       110.500
 47  2.15482       106.500
 48  2.16820       103.000
 49  2.17802       100.500
 50  2.18805        98.000
 51  2.19832        95.500
 52  2.20883        93.000
 53  2.21961        90.500
 54  2.23067        88.000
 55  2.24202        85.500
 56  2.25370        83.000
 57  2.26569        80.500
 58  2.27799        78.000
 59  2.28811        76.000
 60  2.29846        74.000
 61  2.30909        72.000
 62  2.31999        70.000
 63  2.33118        68.000
 64  2.34268        66.000
 65  2.35451        64.000
 66  2.36669        62.000
 67  2.37923        60.000
 68  2.39086        58.200
 69  2.40282        56.400
 70  2.41514        54.600
 71  2.42784        52.800
 72  2.44095        51.000
 73  2.45450        49.200
 74  2.46851        47.400
 75  2.48301        45.600
 76  2.49806        43.800
 77  2.51193        42.200
 78  2.52628        40.600
 79  2.54115        39.000
 80  2.55660        37.400
 81  2.57266        35.800
 82  2.58833        34.300
 83  2.60463        32.800
 84  2.62163        31.300
 85  2.63819        29.900
 86  2.65545        28.500
 87  2.67352        27.100
 88  2.69108        25.800
 89  2.70946        24.500
 90  2.72727        23.300
 91  2.74593        22.100
 92  2.76557        20.900
 93  2.78106        20.000
 94  2.79355        19.300
 95  2.80647        18.600
 96  2.81891        17.950
 97  2.83179        17.300
 98  2.84516        16.650
 99  2.85798        16.050
100  2.87130        15.450
101  2.88516        14.850
102  2.89839        14.300
103  2.91216        13.750
104  2.92654        13.200
105  2.94157        12.650
106  2.95589        12.150
107  2.97085        11.650
108  2.98655        11.150
109  3.00305        10.650
110  3.01869        10.200
111  3.03510         9.750
112  3.05242         9.300
113  3.07073         8.850
114  3.08798         8.450
115  3.10618         8.050
116  3.12550         7.650
117  3.14608         7.250
118  3.16529         6.900
119  3.18569         6.550
120  3.20752         6.200
121  3.23027         5.860
122  3.25326         5.540
123  3.27803         5.220
124  3.30316         4.920
125  3.32850         4.640
126  3.35594         4.360
127  3.38588         4.080
128  3.41038         3.870
129  3.43277         3.690
130  3.45673         3.510
131  3.48102         3.340
132  3.50551         3.180
133  3.53180         3.020
134  3.56015         2.860
135  3.58891         2.710
136  3.62001         2.560
137  3.65159         2.420
138  3.68589         2.280
139  3.72074         2.150
140  3.75881         2.020
141  3.79751         1.900
142  3.84008         1.780
143  3.88340         1.670
144  3.93143         1.560
145  3.98535         1.450
146  4.01270         1.400
