Sensor Model:   CX-1050-AA-1.4L
Serial Number:  X22637
Data Format:    4      (Log Ohms/Kelvin)
SetPoint Limit: 325.      (Kelvin)
Temperature coefficient:  1 (Negative)
Number of Breakpoints:   146

No.   Units      Temperature (K)

  1  1.68424       325.000
  2  1.69122       319.000
  3  1.69775       313.500
  4  1.70442       308.000
  5  1.71124       302.500
  6  1.71821       297.000
  7  1.72533       291.500
  8  1.73261       286.000
  9  1.74006       280.500
 10  1.74768       275.000
 11  1.75548       269.500
 12  1.76346       264.000
 13  1.77163       258.500
 14  1.78000       253.000
 15  1.78779       248.000
 16  1.79575       243.000
 17  1.80389       238.000
 18  1.81222       233.000
 19  1.82074       228.000
 20  1.82946       223.000
 21  1.83839       218.000
 22  1.84753       213.000
 23  1.85689       208.000
 24  1.86649       203.000
 25  1.87632       198.000
 26  1.88641       193.000
 27  1.89676       188.000
 28  1.90738       183.000
 29  1.91828       178.000
 30  1.92835       173.500
 31  1.93866       169.000
 32  1.94924       164.500
 33  1.96009       160.000
 34  1.97123       155.500
 35  1.98267       151.000
 36  1.99443       146.500
 37  2.00652       142.000
 38  2.01896       137.500
 39  2.03177       133.000
 40  2.04350       129.000
 41  2.05554       125.000
 42  2.06794       121.000
 43  2.08070       117.000
 44  2.09386       113.000
 45  2.10743       109.000
 46  2.12145       105.000
 47  2.13595       101.000
 48  2.14718        98.000
 49  2.15676        95.500
 50  2.16655        93.000
 51  2.17658        90.500
 52  2.18686        88.000
 53  2.19740        85.500
 54  2.20822        83.000
 55  2.21933        80.500
 56  2.23077        78.000
 57  2.24254        75.500
 58  2.25466        73.000
 59  2.26465        71.000
 60  2.27487        69.000
 61  2.28537        67.000
 62  2.29615        65.000
 63  2.30724        63.000
 64  2.31865        61.000
 65  2.33040        59.000
 66  2.34252        57.000
 67  2.35503        55.000
 68  2.36665        53.200
 69  2.37862        51.400
 70  2.39099        49.600
 71  2.40376        47.800
 72  2.41697        46.000
 73  2.43066        44.200
 74  2.44327        42.600
 75  2.45629        41.000
 76  2.47064        39.300
 77  2.48467        37.700
 78  2.49924        36.100
 79  2.51346        34.600
 80  2.52822        33.100
 81  2.54362        31.600
 82  2.55861        30.200
 83  2.57423        28.800
 84  2.59058        27.400
 85  2.60648        26.100
 86  2.62313        24.800
 87  2.63927        23.600
 88  2.65621        22.400
 89  2.67256        21.300
 90  2.68975        20.200
 91  2.70293        19.400
 92  2.71402        18.750
 93  2.72551        18.100
 94  2.73746        17.450
 95  2.74894        16.850
 96  2.76087        16.250
 97  2.77330        15.650
 98  2.78520        15.100
 99  2.79759        14.550
100  2.81053        14.000
101  2.82282        13.500
102  2.83565        13.000
103  2.84911        12.500
104  2.86324        12.000
105  2.87660        11.550
106  2.89062        11.100
107  2.90537        10.650
108  2.92095        10.200
109  2.93744         9.750
110  2.95299         9.350
111  2.96940         8.950
112  2.98684         8.550
113  3.00541         8.150
114  3.02275         7.800
115  3.04114         7.450
116  3.06081         7.100
117  3.08186         6.750
118  3.10453         6.400
119  3.12903         6.050
120  3.15253         5.740
121  3.17707         5.440
122  3.20365         5.140
123  3.23064         4.860
124  3.25997         4.580
125  3.28976         4.320
126  3.32229         4.060
127  3.34970         3.860
128  3.37463         3.690
129  3.40136         3.520
130  3.42843         3.360
131  3.45751         3.200
132  3.48896         3.040
133  3.52090         2.890
134  3.55549         2.740
135  3.59062         2.600
136  3.62876         2.460
137  3.67050         2.320
138  3.71302         2.190
139  3.75595         2.070
140  3.80301         1.950
141  3.85507         1.830
142  3.90813         1.720
143  3.96169         1.620
144  4.02130         1.520
145  4.09409         1.410
146  4.10169         1.400
