Sensor Model:   CX-1050-AA-1.4L
Serial Number:  X22642
Data Format:    4      (Log Ohms/Kelvin)
SetPoint Limit: 325.      (Kelvin)
Temperature coefficient:  1 (Negative)
Number of Breakpoints:   148

No.   Units      Temperature (K)

  1  1.74682       325.000
  2  1.75319       319.000
  3  1.75916       313.500
  4  1.76527       308.000
  5  1.77151       302.500
  6  1.77790       297.000
  7  1.78443       291.500
  8  1.79111       286.000
  9  1.79794       280.500
 10  1.80493       275.000
 11  1.81208       269.500
 12  1.81941       264.000
 13  1.82690       258.500
 14  1.83458       253.000
 15  1.84172       248.000
 16  1.84901       243.000
 17  1.85648       238.000
 18  1.86411       233.000
 19  1.87192       228.000
 20  1.87992       223.000
 21  1.88811       218.000
 22  1.89649       213.000
 23  1.90509       208.000
 24  1.91390       203.000
 25  1.92294       198.000
 26  1.93221       193.000
 27  1.94172       188.000
 28  1.95051       183.500
 29  1.95951       179.000
 30  1.96874       174.500
 31  1.97820       170.000
 32  1.98791       165.500
 33  1.99788       161.000
 34  2.00811       156.500
 35  2.01863       152.000
 36  2.02944       147.500
 37  2.04057       143.000
 38  2.05203       138.500
 39  2.06251       134.500
 40  2.07328       130.500
 41  2.08436       126.500
 42  2.09576       122.500
 43  2.10752       118.500
 44  2.11965       114.500
 45  2.13219       110.500
 46  2.14352       107.000
 47  2.15519       103.500
 48  2.16551       100.500
 49  2.17433        98.000
 50  2.18336        95.500
 51  2.19261        93.000
 52  2.20210        90.500
 53  2.21184        88.000
 54  2.22184        85.500
 55  2.23212        83.000
 56  2.24269        80.500
 57  2.25139        78.500
 58  2.26028        76.500
 59  2.26941        74.500
 60  2.27878        72.500
 61  2.28841        70.500
 62  2.29830        68.500
 63  2.30848        66.500
 64  2.31895        64.500
 65  2.32975        62.500
 66  2.34089        60.500
 67  2.35181        58.600
 68  2.36248        56.800
 69  2.37348        55.000
 70  2.38484        53.200
 71  2.39658        51.400
 72  2.40873        49.600
 73  2.42132        47.800
 74  2.43437        46.000
 75  2.44641        44.400
 76  2.45887        42.800
 77  2.47179        41.200
 78  2.48605        39.500
 79  2.49916        38.000
 80  2.51276        36.500
 81  2.52692        35.000
 82  2.54069        33.600
 83  2.55501        32.200
 84  2.56995        30.800
 85  2.58557        29.400
 86  2.60075        28.100
 87  2.61661        26.800
 88  2.63326        25.500
 89  2.64941        24.300
 90  2.66635        23.100
 91  2.68422        21.900
 92  2.70151        20.800
 93  2.71557        19.950
 94  2.72672        19.300
 95  2.73827        18.650
 96  2.75027        18.000
 97  2.76178        17.400
 98  2.77372        16.800
 99  2.78615        16.200
100  2.79911        15.600
101  2.81151        15.050
102  2.82444        14.500
103  2.83794        13.950
104  2.85076        13.450
105  2.86416        12.950
106  2.87821        12.450
107  2.89296        11.950
108  2.90849        11.450
109  2.92322        11.000
110  2.93869        10.550
111  2.95504        10.100
112  2.97233         9.650
113  2.98864         9.250
114  3.00585         8.850
115  3.02413         8.450
116  3.04360         8.050
117  3.06177         7.700
118  3.08106         7.350
119  3.10167         7.000
120  3.12375         6.650
121  3.14753         6.300
122  3.17403         5.940
123  3.19794         5.640
124  3.22373         5.340
125  3.25172         5.040
126  3.28017         4.760
127  3.31113         4.480
128  3.34263         4.220
129  3.36898         4.020
130  3.39287         3.850
131  3.41839         3.680
132  3.44576         3.510
133  3.47345         3.350
134  3.50319         3.190
135  3.53533         3.030
136  3.56797         2.880
137  3.60332         2.730
138  3.63926         2.590
139  3.67833         2.450
140  3.71804         2.320
141  3.76138         2.190
142  3.80910         2.060
143  3.85770         1.940
144  3.91121         1.820
145  3.97069         1.700
146  4.03153         1.590
147  4.09304         1.490
148  4.15524         1.400
