Sensor Model:   CX-1050-AA-1.4L
Serial Number:  X22644
Data Format:    4      (Log Ohms/Kelvin)
SetPoint Limit: 325.      (Kelvin)
Temperature coefficient:  1 (Negative)
Number of Breakpoints:   148

No.   Units      Temperature (K)

  1  1.73554       325.000
  2  1.74175       319.000
  3  1.74758       313.500
  4  1.75353       308.000
  5  1.75961       302.500
  6  1.76582       297.000
  7  1.77218       291.500
  8  1.77868       286.000
  9  1.78533       280.500
 10  1.79214       275.000
 11  1.79911       269.500
 12  1.80624       264.000
 13  1.81354       258.500
 14  1.82034       253.500
 15  1.82729       248.500
 16  1.83440       243.500
 17  1.84167       238.500
 18  1.84911       233.500
 19  1.85672       228.500
 20  1.86451       223.500
 21  1.87249       218.500
 22  1.88067       213.500
 23  1.88905       208.500
 24  1.89763       203.500
 25  1.90644       198.500
 26  1.91547       193.500
 27  1.92474       188.500
 28  1.93426       183.500
 29  1.94305       179.000
 30  1.95205       174.500
 31  1.96129       170.000
 32  1.97076       165.500
 33  1.98048       161.000
 34  1.99046       156.500
 35  2.00072       152.000
 36  2.01127       147.500
 37  2.02212       143.000
 38  2.03330       138.500
 39  2.04353       134.500
 40  2.05404       130.500
 41  2.06485       126.500
 42  2.07598       122.500
 43  2.08746       118.500
 44  2.09929       114.500
 45  2.11151       110.500
 46  2.12415       106.500
 47  2.13558       103.000
 48  2.14398       100.500
 49  2.15255        98.000
 50  2.16133        95.500
 51  2.17033        93.000
 52  2.17955        90.500
 53  2.18902        88.000
 54  2.19874        85.500
 55  2.20873        83.000
 56  2.21695        81.000
 57  2.22536        79.000
 58  2.23398        77.000
 59  2.24283        75.000
 60  2.25189        73.000
 61  2.26119        71.000
 62  2.27075        69.000
 63  2.28058        67.000
 64  2.29069        65.000
 65  2.30111        63.000
 66  2.31185        61.000
 67  2.32293        59.000
 68  2.33323        57.200
 69  2.34384        55.400
 70  2.35478        53.600
 71  2.36609        51.800
 72  2.37778        50.000
 73  2.38989        48.200
 74  2.40243        46.400
 75  2.41400        44.800
 76  2.42596        43.200
 77  2.43836        41.600
 78  2.45204        39.900
 79  2.46545        38.300
 80  2.47853        36.800
 81  2.49212        35.300
 82  2.50629        33.800
 83  2.52008        32.400
 84  2.53445        31.000
 85  2.54947        29.600
 86  2.56406        28.300
 87  2.57930        27.000
 88  2.59528        25.700
 89  2.61077        24.500
 90  2.62701        23.300
 91  2.64411        22.100
 92  2.66064        21.000
 93  2.67484        20.100
 94  2.68634        19.400
 95  2.69740        18.750
 96  2.70886        18.100
 97  2.72077        17.450
 98  2.73221        16.850
 99  2.74409        16.250
100  2.75648        15.650
101  2.76941        15.050
102  2.78180        14.500
103  2.79361        14.000
104  2.80599        13.500
105  2.82020        12.950
106  2.83370        12.450
107  2.84642        12.000
108  2.85973        11.550
109  2.87371        11.100
110  2.88840        10.650
111  2.90389        10.200
112  2.92027         9.750
113  2.93569         9.350
114  2.95196         8.950
115  2.96921         8.550
116  2.98756         8.150
117  3.00714         7.750
118  3.02547         7.400
119  3.04498         7.050
120  3.06589         6.700
121  3.08836         6.350
122  3.11265         6.000
123  3.13670         5.680
124  3.16110         5.380
125  3.18750         5.080
126  3.21434         4.800
127  3.24351         4.520
128  3.27315         4.260
129  3.30298         4.020
130  3.32861         3.830
131  3.35312         3.660
132  3.37939         3.490
133  3.40765         3.320
134  3.43634         3.160
135  3.46530         3.010
136  3.49651         2.860
137  3.53036         2.710
138  3.56472         2.570
139  3.60209         2.430
140  3.64009         2.300
141  3.68165         2.170
142  3.72394         2.050
143  3.77043         1.930
144  3.82204         1.810
145  3.87952         1.690
146  3.93827         1.580
147  4.00323         1.470
148  4.04880         1.400
