Sensor Model:   CX-1050-AA-1.4L
Serial Number:  X22643
Data Format:    4      (Log Ohms/Kelvin)
SetPoint Limit: 325.      (Kelvin)
Temperature coefficient:  1 (Negative)
Number of Breakpoints:   149

No.   Units      Temperature (K)

  1  1.78621       325.000
  2  1.79301       319.000
  3  1.79937       313.500
  4  1.80586       308.000
  5  1.81250       302.500
  6  1.81928       297.000
  7  1.82621       291.500
  8  1.83329       286.000
  9  1.84053       280.500
 10  1.84794       275.000
 11  1.85552       269.500
 12  1.86328       264.000
 13  1.87122       258.500
 14  1.87935       253.000
 15  1.88692       248.000
 16  1.89465       243.000
 17  1.90256       238.000
 18  1.91065       233.000
 19  1.91893       228.000
 20  1.92741       223.000
 21  1.93608       218.000
 22  1.94497       213.000
 23  1.95407       208.000
 24  1.96340       203.000
 25  1.97297       198.000
 26  1.98279       193.000
 27  1.99286       188.000
 28  2.00320       183.000
 29  2.01276       178.500
 30  2.02255       174.000
 31  2.03259       169.500
 32  2.04289       165.000
 33  2.05346       160.500
 34  2.06432       156.000
 35  2.07548       151.500
 36  2.08697       147.000
 37  2.09879       142.500
 38  2.10960       138.500
 39  2.12070       134.500
 40  2.13211       130.500
 41  2.14386       126.500
 42  2.15596       122.500
 43  2.16844       118.500
 44  2.18131       114.500
 45  2.19461       110.500
 46  2.20663       107.000
 47  2.21900       103.500
 48  2.22994       100.500
 49  2.23929        98.000
 50  2.24885        95.500
 51  2.25866        93.000
 52  2.26872        90.500
 53  2.27904        88.000
 54  2.28964        85.500
 55  2.30054        83.000
 56  2.30950        81.000
 57  2.31868        79.000
 58  2.32809        77.000
 59  2.33773        75.000
 60  2.34763        73.000
 61  2.35778        71.000
 62  2.36822        69.000
 63  2.37895        67.000
 64  2.39001        65.000
 65  2.40140        63.000
 66  2.41315        61.000
 67  2.42528        59.000
 68  2.43656        57.200
 69  2.44818        55.400
 70  2.46019        53.600
 71  2.47259        51.800
 72  2.48543        50.000
 73  2.49873        48.200
 74  2.51098        46.600
 75  2.52364        45.000
 76  2.53675        43.400
 77  2.55034        41.800
 78  2.56445        40.200
 79  2.57820        38.700
 80  2.59247        37.200
 81  2.60732        35.700
 82  2.62279        34.200
 83  2.63785        32.800
 84  2.65354        31.400
 85  2.66994        30.000
 86  2.68586        28.700
 87  2.70250        27.400
 88  2.71995        26.100
 89  2.73686        24.900
 90  2.75459        23.700
 91  2.77328        22.500
 92  2.79134        21.400
 93  2.81038        20.300
 94  2.82500        19.500
 95  2.83732        18.850
 96  2.85010        18.200
 97  2.86237        17.600
 98  2.87511        17.000
 99  2.88837        16.400
100  2.90220        15.800
101  2.91543        15.250
102  2.92923        14.700
103  2.94364        14.150
104  2.95865        13.600
105  2.97296        13.100
106  2.98799        12.600
107  3.00380        12.100
108  3.02042        11.600
109  3.03619        11.150
110  3.05276        10.700
111  3.07026        10.250
112  3.08877         9.800
113  3.10622         9.400
114  3.12463         9.000
115  3.14418         8.600
116  3.16499         8.200
117  3.18722         7.800
118  3.20805         7.450
119  3.23022         7.100
120  3.25400         6.750
121  3.27959         6.400
122  3.30323         6.100
123  3.32851         5.800
124  3.35584         5.500
125  3.38541         5.200
126  3.41545         4.920
127  3.44809         4.640
128  3.48123         4.380
129  3.51742         4.120
130  3.54791         3.920
131  3.57560         3.750
132  3.60529         3.580
133  3.63531         3.420
134  3.66754         3.260
135  3.70234         3.100
136  3.73763         2.950
137  3.77580         2.800
138  3.81451         2.660
139  3.85653         2.520
140  3.90248         2.380
141  3.94931         2.250
142  4.00068         2.120
143  4.05307         2.000
144  4.11077         1.880
145  4.17501         1.760
146  4.24071         1.650
147  4.31379         1.540
148  4.38826         1.440
149  4.42110         1.400
