Sensor Model:   CX-1050-AA-1.4L
Serial Number:  X24506
Data Format:    4      (Log Ohms/Kelvin)
SetPoint Limit: 325.      (Kelvin)
Temperature coefficient:  1 (Negative)
Number of Breakpoints:   148

No.   Units      Temperature (K)

  1  1.67380       325.000
  2  1.68035       319.000
  3  1.68649       313.500
  4  1.69277       308.000
  5  1.69921       302.500
  6  1.70579       297.000
  7  1.71253       291.500
  8  1.71943       286.000
  9  1.72585       281.000
 10  1.73241       276.000
 11  1.73912       271.000
 12  1.74598       266.000
 13  1.75300       261.000
 14  1.76018       256.000
 15  1.76753       251.000
 16  1.77505       246.000
 17  1.78275       241.000
 18  1.79064       236.000
 19  1.79872       231.000
 20  1.80699       226.000
 21  1.81548       221.000
 22  1.82417       216.000
 23  1.83309       211.000
 24  1.84225       206.000
 25  1.85164       201.000
 26  1.86129       196.000
 27  1.87020       191.500
 28  1.87932       187.000
 29  1.88868       182.500
 30  1.89827       178.000
 31  1.90812       173.500
 32  1.91823       169.000
 33  1.92862       164.500
 34  1.93929       160.000
 35  1.95026       155.500
 36  1.96155       151.000
 37  1.97317       146.500
 38  1.98381       142.500
 39  1.99473       138.500
 40  2.00596       134.500
 41  2.01751       130.500
 42  2.02941       126.500
 43  2.04167       122.500
 44  2.05432       118.500
 45  2.06738       114.500
 46  2.08088       110.500
 47  2.09309       107.000
 48  2.10568       103.500
 49  2.11681       100.500
 50  2.12632        98.000
 51  2.13607        95.500
 52  2.14606        93.000
 53  2.15632        90.500
 54  2.16685        88.000
 55  2.17768        85.500
 56  2.18883        83.000
 57  2.20029        80.500
 58  2.21209        78.000
 59  2.22180        76.000
 60  2.23174        74.000
 61  2.24196        72.000
 62  2.25247        70.000
 63  2.26326        68.000
 64  2.27438        66.000
 65  2.28583        64.000
 66  2.29764        62.000
 67  2.30983        60.000
 68  2.32115        58.200
 69  2.33282        56.400
 70  2.34487        54.600
 71  2.35732        52.800
 72  2.37019        51.000
 73  2.38352        49.200
 74  2.39734        47.400
 75  2.41007        45.800
 76  2.42324        44.200
 77  2.43688        42.600
 78  2.45103        41.000
 79  2.46573        39.400
 80  2.48004        37.900
 81  2.49492        36.400
 82  2.51040        34.900
 83  2.52653        33.400
 84  2.54225        32.000
 85  2.55862        30.600
 86  2.57574        29.200
 87  2.59238        27.900
 88  2.60977        26.600
 89  2.62802        25.300
 90  2.64571        24.100
 91  2.66427        22.900
 92  2.68383        21.700
 93  2.70276        20.600
 94  2.71812        19.750
 95  2.73126        19.050
 96  2.74392        18.400
 97  2.75703        17.750
 98  2.77067        17.100
 99  2.78375        16.500
100  2.79734        15.900
101  2.81149        15.300
102  2.82626        14.700
103  2.84039        14.150
104  2.85515        13.600
105  2.87061        13.050
106  2.88534        12.550
107  2.90074        12.050
108  2.91691        11.550
109  2.93391        11.050
110  2.95003        10.600
111  2.96696        10.150
112  2.98484         9.700
113  3.00374         9.250
114  3.02155         8.850
115  3.04034         8.450
116  3.06030         8.050
117  3.08155         7.650
118  3.10138         7.300
119  3.12245         6.950
120  3.14496         6.600
121  3.16910         6.250
122  3.19514         5.900
123  3.22083         5.580
124  3.24686         5.280
125  3.27497         4.980
126  3.30350         4.700
127  3.33447         4.420
128  3.36593         4.160
129  3.39355         3.950
130  3.41888         3.770
131  3.44451         3.600
132  3.47195         3.430
133  3.50148         3.260
134  3.53148         3.100
135  3.56176         2.950
136  3.59442         2.800
137  3.62984         2.650
138  3.66580         2.510
139  3.70490         2.370
140  3.74464         2.240
141  3.78806         2.110
142  3.83220         1.990
143  3.88070         1.870
144  3.93460         1.750
145  3.98970         1.640
146  4.05108         1.530
147  4.12009         1.420
148  4.13433         1.400
