Sensor Model:   CX-1050-CU-1.4L
Serial Number:  X31254
Data Format:    4      (Log Ohms/Kelvin)
SetPoint Limit: 325.      (Kelvin)
Temperature coefficient:  1 (Negative)
Number of Breakpoints:   149

No.   Units      Temperature (K)

  1  1.77364       325.000
  2  1.78070       319.000
  3  1.78732       313.500
  4  1.79410       308.000
  5  1.80103       302.500
  6  1.80812       297.000
  7  1.81538       291.500
  8  1.82281       286.000
  9  1.83042       280.500
 10  1.83751       275.500
 11  1.84474       270.500
 12  1.85214       265.500
 13  1.85971       260.500
 14  1.86746       255.500
 15  1.87538       250.500
 16  1.88349       245.500
 17  1.89179       240.500
 18  1.90029       235.500
 19  1.90899       230.500
 20  1.91791       225.500
 21  1.92705       220.500
 22  1.93642       215.500
 23  1.94603       210.500
 24  1.95589       205.500
 25  1.96601       200.500
 26  1.97640       195.500
 27  1.98600       191.000
 28  1.99583       186.500
 29  2.00591       182.000
 30  2.01625       177.500
 31  2.02686       173.000
 32  2.03776       168.500
 33  2.04895       164.000
 34  2.06045       159.500
 35  2.07228       155.000
 36  2.08446       150.500
 37  2.09699       146.000
 38  2.10847       142.000
 39  2.12024       138.000
 40  2.13236       134.000
 41  2.14483       130.000
 42  2.15767       126.000
 43  2.17091       122.000
 44  2.18456       118.000
 45  2.19867       114.000
 46  2.21325       110.000
 47  2.22644       106.500
 48  2.24004       103.000
 49  2.25207       100.000
 50  2.26236        97.500
 51  2.27289        95.000
 52  2.28370        92.500
 53  2.29479        90.000
 54  2.30619        87.500
 55  2.31791        85.000
 56  2.32998        82.500
 57  2.34240        80.000
 58  2.35261        78.000
 59  2.36305        76.000
 60  2.37378        74.000
 61  2.38479        72.000
 62  2.39611        70.000
 63  2.40775        68.000
 64  2.41973        66.000
 65  2.43206        64.000
 66  2.44479        62.000
 67  2.45792        60.000
 68  2.47011        58.200
 69  2.48268        56.400
 70  2.49565        54.600
 71  2.50904        52.800
 72  2.52289        51.000
 73  2.53723        49.200
 74  2.55209        47.400
 75  2.56578        45.800
 76  2.57993        44.200
 77  2.59460        42.600
 78  2.60981        41.000
 79  2.62561        39.400
 80  2.64100        37.900
 81  2.65699        36.400
 82  2.67363        34.900
 83  2.68982        33.500
 84  2.70665        32.100
 85  2.72422        30.700
 86  2.74259        29.300
 87  2.76044        28.000
 88  2.77909        26.700
 89  2.79867        25.400
 90  2.81765        24.200
 91  2.83757        23.000
 92  2.85857        21.800
 93  2.87890        20.700
 94  2.89542        19.850
 95  2.90852        19.200
 96  2.92209        18.550
 97  2.93618        17.900
 98  2.94969        17.300
 99  2.96371        16.700
100  2.97830        16.100
101  2.99349        15.500
102  3.00804        14.950
103  3.02318        14.400
104  3.03899        13.850
105  3.05398        13.350
106  3.06964        12.850
107  3.08608        12.350
108  3.10333        11.850
109  3.12148        11.350
110  3.13869        10.900
111  3.15676        10.450
112  3.17584        10.000
113  3.19602         9.550
114  3.21503         9.150
115  3.23510         8.750
116  3.25640         8.350
117  3.27908         7.950
118  3.30024         7.600
119  3.32269         7.250
120  3.34669         6.900
121  3.37239         6.550
122  3.40008         6.200
123  3.42917         5.860
124  3.45691         5.560
125  3.48684         5.260
126  3.51936         4.960
127  3.55245         4.680
128  3.58588         4.420
129  3.62232         4.160
130  3.65451         3.950
131  3.68237         3.780
132  3.71219         3.610
133  3.74421         3.440
134  3.77665         3.280
135  3.81154         3.120
136  3.84691         2.970
137  3.88506         2.820
138  3.92654         2.670
139  3.96874         2.530
140  4.01136         2.400
141  4.05781         2.270
142  4.10883         2.140
143  4.16075         2.020
144  4.21795         1.900
145  4.28156         1.780
146  4.34654         1.670
147  4.41854         1.560
148  4.49893         1.450
149  4.53947         1.400
