Sensor Model:   CX-1050-CU-1.4L
Serial Number:  X31317
Data Format:    4      (Log Ohms/Kelvin)
SetPoint Limit: 325.      (Kelvin)
Temperature coefficient:  1 (Negative)
Number of Breakpoints:   153

No.   Units      Temperature (K)

  1  1.75784       325.000
  2  1.76423       319.000
  3  1.77021       313.500
  4  1.77634       308.000
  5  1.78260       302.500
  6  1.78901       297.000
  7  1.79557       291.500
  8  1.80228       286.000
  9  1.80915       280.500
 10  1.81618       275.000
 11  1.82338       269.500
 12  1.83008       264.500
 13  1.83693       259.500
 14  1.84394       254.500
 15  1.85110       249.500
 16  1.85843       244.500
 17  1.86593       239.500
 18  1.87361       234.500
 19  1.88148       229.500
 20  1.88953       224.500
 21  1.89779       219.500
 22  1.90625       214.500
 23  1.91492       209.500
 24  1.92382       204.500
 25  1.93296       199.500
 26  1.94140       195.000
 27  1.95004       190.500
 28  1.95889       186.000
 29  1.96798       181.500
 30  1.97730       177.000
 31  1.98686       172.500
 32  1.99669       168.000
 33  2.00679       163.500
 34  2.01717       159.000
 35  2.02786       154.500
 36  2.03886       150.000
 37  2.04893       146.000
 38  2.05927       142.000
 39  2.06990       138.000
 40  2.08085       134.000
 41  2.09212       130.000
 42  2.10374       126.000
 43  2.11572       122.000
 44  2.12811       118.000
 45  2.13929       114.500
 46  2.15081       111.000
 47  2.16270       107.500
 48  2.17499       104.000
 49  2.18770       100.500
 50  2.19708        98.000
 51  2.20475        96.000
 52  2.21258        94.000
 53  2.22059        92.000
 54  2.22879        90.000
 55  2.23718        88.000
 56  2.24577        86.000
 57  2.25459        84.000
 58  2.26363        82.000
 59  2.27290        80.000
 60  2.28239        78.000
 61  2.29214        76.000
 62  2.30217        74.000
 63  2.31250        72.000
 64  2.32315        70.000
 65  2.33413        68.000
 66  2.34546        66.000
 67  2.35717        64.000
 68  2.36928        62.000
 69  2.38182        60.000
 70  2.39351        58.200
 71  2.40560        56.400
 72  2.41813        54.600
 73  2.43111        52.800
 74  2.44309        51.200
 75  2.45546        49.600
 76  2.46830        48.000
 77  2.48162        46.400
 78  2.49545        44.800
 79  2.50986        43.200
 80  2.52486        41.600
 81  2.53855        40.200
 82  2.55276        38.800
 83  2.56756        37.400
 84  2.58299        36.000
 85  2.59911        34.600
 86  2.61477        33.300
 87  2.63110        32.000
 88  2.64820        30.700
 89  2.66613        29.400
 90  2.68351        28.200
 91  2.70172        27.000
 92  2.72087        25.800
 93  2.74106        24.600
 94  2.76059        23.500
 95  2.78116        22.400
 96  2.80293        21.300
 97  2.82391        20.300
 98  2.83936        19.600
 99  2.85308        19.000
100  2.86733        18.400
101  2.88214        17.800
102  2.89756        17.200
103  2.91365        16.600
104  2.92904        16.050
105  2.94507        15.500
106  2.96183        14.950
107  2.97937        14.400
108  2.99770        13.850
109  3.01512        13.350
110  3.03336        12.850
111  3.05254        12.350
112  3.07271        11.850
113  3.09181        11.400
114  3.11185        10.950
115  3.13297        10.500
116  3.15528        10.050
117  3.17891         9.600
118  3.20119         9.200
119  3.22471         8.800
120  3.24969         8.400
121  3.27629         8.000
122  3.30471         7.600
123  3.33133         7.250
124  3.35966         6.900
125  3.39003         6.550
126  3.42269         6.200
127  3.45694         5.860
128  3.49176         5.540
129  3.52710         5.240
130  3.56530         4.940
131  3.60411         4.660
132  3.64627         4.380
133  3.68912         4.120
134  3.72492         3.920
135  3.75737         3.750
136  3.79203         3.580
137  3.82918         3.410
138  3.86678         3.250
139  3.90717         3.090
140  3.95084         2.930
141  3.99523         2.780
142  4.04006         2.640
143  4.08862         2.500
144  4.14158         2.360
145  4.19536         2.230
146  4.25411         2.100
147  4.31883         1.970
148  4.38484         1.850
149  4.45771         1.730
150  4.53206         1.620
151  4.61466         1.510
152  4.69936         1.410
153  4.70914         1.400
