Sensor Model:   CX-1050-CU-1.4L
Serial Number:  X31319
Data Format:    4      (Log Ohms/Kelvin)
SetPoint Limit: 325.      (Kelvin)
Temperature coefficient:  1 (Negative)
Number of Breakpoints:   149

No.   Units      Temperature (K)

  1  1.80269       325.000
  2  1.81010       319.000
  3  1.81704       313.500
  4  1.82413       308.000
  5  1.83139       302.500
  6  1.83880       297.000
  7  1.84639       291.500
  8  1.85416       286.000
  9  1.86210       280.500
 10  1.87024       275.000
 11  1.87857       269.500
 12  1.88632       264.500
 13  1.89424       259.500
 14  1.90234       254.500
 15  1.91062       249.500
 16  1.91909       244.500
 17  1.92776       239.500
 18  1.93663       234.500
 19  1.94572       229.500
 20  1.95503       224.500
 21  1.96456       219.500
 22  1.97434       214.500
 23  1.98436       209.500
 24  1.99463       204.500
 25  2.00518       199.500
 26  2.01600       194.500
 27  2.02600       190.000
 28  2.03624       185.500
 29  2.04673       181.000
 30  2.05750       176.500
 31  2.06854       172.000
 32  2.07988       167.500
 33  2.09153       163.000
 34  2.10349       158.500
 35  2.11580       154.000
 36  2.12847       149.500
 37  2.14151       145.000
 38  2.15345       141.000
 39  2.16570       137.000
 40  2.17831       133.000
 41  2.19129       129.000
 42  2.20465       125.000
 43  2.21844       121.000
 44  2.23266       117.000
 45  2.24736       113.000
 46  2.26064       109.500
 47  2.27432       106.000
 48  2.28845       102.500
 49  2.29885       100.000
 50  2.30947        97.500
 51  2.32037        95.000
 52  2.33155        92.500
 53  2.34303        90.000
 54  2.35482        87.500
 55  2.36695        85.000
 56  2.37943        82.500
 57  2.39228        80.000
 58  2.40284        78.000
 59  2.41365        76.000
 60  2.42476        74.000
 61  2.43618        72.000
 62  2.44791        70.000
 63  2.45998        68.000
 64  2.47241        66.000
 65  2.48522        64.000
 66  2.49843        62.000
 67  2.51208        60.000
 68  2.52475        58.200
 69  2.53782        56.400
 70  2.55131        54.600
 71  2.56525        52.800
 72  2.57967        51.000
 73  2.59461        49.200
 74  2.61010        47.400
 75  2.62439        45.800
 76  2.63916        44.200
 77  2.65448        42.600
 78  2.67037        41.000
 79  2.68690        39.400
 80  2.70301        37.900
 81  2.71976        36.400
 82  2.73721        34.900
 83  2.75419        33.500
 84  2.77187        32.100
 85  2.79034        30.700
 86  2.80826        29.400
 87  2.82697        28.100
 88  2.84657        26.800
 89  2.86554        25.600
 90  2.88539        24.400
 91  2.90627        23.200
 92  2.92640        22.100
 93  2.94756        21.000
 94  2.96580        20.100
 95  2.98056        19.400
 96  2.99477        18.750
 97  3.00950        18.100
 98  3.02481        17.450
 99  3.03952        16.850
100  3.05478        16.250
101  3.07069        15.650
102  3.08589        15.100
103  3.10171        14.550
104  3.11822        14.000
105  3.13547        13.450
106  3.15189        12.950
107  3.16906        12.450
108  3.18708        11.950
109  3.20600        11.450
110  3.22393        11.000
111  3.24273        10.550
112  3.26255        10.100
113  3.28348         9.650
114  3.30317         9.250
115  3.32392         8.850
116  3.34591         8.450
117  3.36928         8.050
118  3.39420         7.650
119  3.41751         7.300
120  3.44229         6.950
121  3.46883         6.600
122  3.49735         6.250
123  3.52817         5.900
124  3.55865         5.580
125  3.58960         5.280
126  3.62082         5.000
127  3.65463         4.720
128  3.69150         4.440
129  3.72898         4.180
130  3.76196         3.970
131  3.79053         3.800
132  3.82106         3.630
133  3.85382         3.460
134  3.88699         3.300
135  3.92266         3.140
136  3.96123         2.980
137  4.00043         2.830
138  4.04003         2.690
139  4.08293         2.550
140  4.12973         2.410
141  4.17730         2.280
142  4.22935         2.150
143  4.28230         2.030
144  4.34054         1.910
145  4.40524         1.790
146  4.47131         1.680
147  4.54470         1.570
148  4.62687         1.460
149  4.67667         1.400
