Sensor Model:   CX-1050-CU-1.4L
Serial Number:  X31320
Data Format:    4      (Log Ohms/Kelvin)
SetPoint Limit: 325.      (Kelvin)
Temperature coefficient:  1 (Negative)
Number of Breakpoints:   149

No.   Units      Temperature (K)

  1  1.80291       325.000
  2  1.80993       319.000
  3  1.81650       313.500
  4  1.82322       308.000
  5  1.83010       302.500
  6  1.83713       297.000
  7  1.84433       291.500
  8  1.85170       286.000
  9  1.85924       280.500
 10  1.86696       275.000
 11  1.87487       269.500
 12  1.88223       264.500
 13  1.88976       259.500
 14  1.89745       254.500
 15  1.90532       249.500
 16  1.91338       244.500
 17  1.92162       239.500
 18  1.93006       234.500
 19  1.93871       229.500
 20  1.94756       224.500
 21  1.95664       219.500
 22  1.96595       214.500
 23  1.97549       209.500
 24  1.98529       204.500
 25  1.99534       199.500
 26  2.00463       195.000
 27  2.01413       190.500
 28  2.02388       186.000
 29  2.03387       181.500
 30  2.04412       177.000
 31  2.05464       172.500
 32  2.06543       168.000
 33  2.07652       163.500
 34  2.08792       159.000
 35  2.09964       154.500
 36  2.11170       150.000
 37  2.12412       145.500
 38  2.13548       141.500
 39  2.14714       137.500
 40  2.15914       133.500
 41  2.17148       129.500
 42  2.18420       125.500
 43  2.19730       121.500
 44  2.21082       117.500
 45  2.22480       113.500
 46  2.23743       110.000
 47  2.25043       106.500
 48  2.26386       103.000
 49  2.27375       100.500
 50  2.28385        98.000
 51  2.29421        95.500
 52  2.30483        93.000
 53  2.31573        90.500
 54  2.32693        88.000
 55  2.33844        85.500
 56  2.35027        83.000
 57  2.36000        81.000
 58  2.36996        79.000
 59  2.38017        77.000
 60  2.39065        75.000
 61  2.40139        73.000
 62  2.41242        71.000
 63  2.42376        69.000
 64  2.43544        67.000
 65  2.44746        65.000
 66  2.45985        63.000
 67  2.47263        61.000
 68  2.48584        59.000
 69  2.49812        57.200
 70  2.51078        55.400
 71  2.52387        53.600
 72  2.53739        51.800
 73  2.55139        50.000
 74  2.56590        48.200
 75  2.57927        46.600
 76  2.59309        45.000
 77  2.60741        43.400
 78  2.62225        41.800
 79  2.63767        40.200
 80  2.65269        38.700
 81  2.66828        37.200
 82  2.68451        35.700
 83  2.70142        34.200
 84  2.71788        32.800
 85  2.73503        31.400
 86  2.75295        30.000
 87  2.77036        28.700
 88  2.78854        27.400
 89  2.80760        26.100
 90  2.82607        24.900
 91  2.84542        23.700
 92  2.86579        22.500
 93  2.88547        21.400
 94  2.90618        20.300
 95  2.92205        19.500
 96  2.93540        18.850
 97  2.94925        18.200
 98  2.96363        17.550
 99  2.97742        16.950
100  2.99173        16.350
101  3.00664        15.750
102  3.02217        15.150
103  3.03704        14.600
104  3.05252        14.050
105  3.06872        13.500
106  3.08412        13.000
107  3.10022        12.500
108  3.11709        12.000
109  3.13481        11.500
110  3.15347        11.000
111  3.17118        10.550
112  3.18980        10.100
113  3.20948         9.650
114  3.22797         9.250
115  3.24745         8.850
116  3.26809         8.450
117  3.29001         8.050
118  3.31337         7.650
119  3.33521         7.300
120  3.35842         6.950
121  3.38325         6.600
122  3.40993         6.250
123  3.43873         5.900
124  3.46720         5.580
125  3.49607         5.280
126  3.52731         4.980
127  3.55905         4.700
128  3.59357         4.420
129  3.62868         4.160
130  3.65955         3.950
131  3.68789         3.770
132  3.71661         3.600
133  3.74738         3.430
134  3.77856         3.270
135  3.81207         3.110
136  3.84832         2.950
137  3.88517         2.800
138  3.92241         2.660
139  3.96276         2.520
140  4.00679         2.380
141  4.05156         2.250
142  4.10055         2.120
143  4.15043         2.000
144  4.20530         1.880
145  4.26631         1.760
146  4.32867         1.650
147  4.39804         1.540
148  4.47591         1.430
149  4.49972         1.400
