Sensor Model:   CX-1050-CU-1.4L
Serial Number:  X31318
Data Format:    4      (Log Ohms/Kelvin)
SetPoint Limit: 325.      (Kelvin)
Temperature coefficient:  1 (Negative)
Number of Breakpoints:   149

No.   Units      Temperature (K)

  1  1.79846       325.000
  2  1.80586       319.000
  3  1.81279       313.500
  4  1.81987       308.000
  5  1.82711       302.500
  6  1.83451       297.000
  7  1.84208       291.500
  8  1.84983       286.000
  9  1.85775       280.500
 10  1.86587       275.000
 11  1.87417       269.500
 12  1.88268       264.000
 13  1.89060       259.000
 14  1.89868       254.000
 15  1.90696       249.000
 16  1.91542       244.000
 17  1.92409       239.000
 18  1.93295       234.000
 19  1.94203       229.000
 20  1.95133       224.000
 21  1.96086       219.000
 22  1.97062       214.000
 23  1.98064       209.000
 24  1.99090       204.000
 25  2.00144       199.000
 26  2.01226       194.000
 27  2.02226       189.500
 28  2.03249       185.000
 29  2.04298       180.500
 30  2.05374       176.000
 31  2.06478       171.500
 32  2.07612       167.000
 33  2.08776       162.500
 34  2.09972       158.000
 35  2.11203       153.500
 36  2.12469       149.000
 37  2.13773       144.500
 38  2.14966       140.500
 39  2.16192       136.500
 40  2.17452       132.500
 41  2.18750       128.500
 42  2.20086       124.500
 43  2.21464       120.500
 44  2.22886       116.500
 45  2.24356       112.500
 46  2.25685       109.000
 47  2.27053       105.500
 48  2.28466       102.000
 49  2.29506        99.500
 50  2.30569        97.000
 51  2.31660        94.500
 52  2.32779        92.000
 53  2.33928        89.500
 54  2.35109        87.000
 55  2.36323        84.500
 56  2.37574        82.000
 57  2.38860        79.500
 58  2.39917        77.500
 59  2.41000        75.500
 60  2.42113        73.500
 61  2.43256        71.500
 62  2.44432        69.500
 63  2.45641        67.500
 64  2.46886        65.500
 65  2.48169        63.500
 66  2.49493        61.500
 67  2.50929        59.400
 68  2.52202        57.600
 69  2.53514        55.800
 70  2.54870        54.000
 71  2.56271        52.200
 72  2.57720        50.400
 73  2.59223        48.600
 74  2.60606        47.000
 75  2.62036        45.400
 76  2.63517        43.800
 77  2.65053        42.200
 78  2.66647        40.600
 79  2.68200        39.100
 80  2.69813        37.600
 81  2.71490        36.100
 82  2.73238        34.600
 83  2.74939        33.200
 84  2.76711        31.800
 85  2.78562        30.400
 86  2.80360        29.100
 87  2.82236        27.800
 88  2.84203        26.500
 89  2.86107        25.300
 90  2.88101        24.100
 91  2.90199        22.900
 92  2.92224        21.800
 93  2.94353        20.700
 94  2.96087        19.850
 95  2.97461        19.200
 96  2.98886        18.550
 97  3.00364        17.900
 98  3.01781        17.300
 99  3.03252        16.700
100  3.04781        16.100
101  3.06375        15.500
102  3.07899        14.950
103  3.09485        14.400
104  3.11140        13.850
105  3.12708        13.350
106  3.14346        12.850
107  3.16063        12.350
108  3.17865        11.850
109  3.19758        11.350
110  3.21551        10.900
111  3.23434        10.450
112  3.25420        10.000
113  3.27518         9.550
114  3.29493         9.150
115  3.31575         8.750
116  3.33783         8.350
117  3.36132         7.950
118  3.38639         7.550
119  3.40986         7.200
120  3.43484         6.850
121  3.46161         6.500
122  3.49042         6.150
123  3.51974         5.820
124  3.55048         5.500
125  3.58170         5.200
126  3.61325         4.920
127  3.64746         4.640
128  3.68482         4.360
129  3.72286         4.100
130  3.75474         3.900
131  3.78372         3.730
132  3.81472         3.560
133  3.84804         3.390
134  3.88182         3.230
135  3.91820         3.070
136  3.95510         2.920
137  3.99497         2.770
138  4.03540         2.630
139  4.07925         2.490
140  4.12722         2.350
141  4.17609         2.220
142  4.22547         2.100
143  4.27963         1.980
144  4.33951         1.860
145  4.40044         1.750
146  4.46783         1.640
147  4.54308         1.530
148  4.62742         1.420
149  4.64481         1.400
