Sensor Model:   CX-1050-CU-1.4L
Serial Number:  X33924
Data Format:    4      (Log Ohms/Kelvin)
SetPoint Limit: 325.0      (Kelvin)
Temperature coefficient:  1 (Negative)
Number of Breakpoints:   147

No.   Units      Temperature (K)

  1  1.74247       325.000
  2  1.74934       319.000
  3  1.75577       313.500
  4  1.76235       308.000
  5  1.76907       302.500
  6  1.77595       297.000
  7  1.78299       291.500
  8  1.79020       286.000
  9  1.79758       280.500
 10  1.80513       275.000
 11  1.81287       269.500
 12  1.82007       264.500
 13  1.82742       259.500
 14  1.83495       254.500
 15  1.84265       249.500
 16  1.85052       244.500
 17  1.85859       239.500
 18  1.86684       234.500
 19  1.87529       229.500
 20  1.88394       224.500
 21  1.89281       219.500
 22  1.90190       214.500
 23  1.91122       209.500
 24  1.92078       204.500
 25  1.93059       199.500
 26  1.94065       194.500
 27  1.95099       189.500
 28  1.96054       185.000
 29  1.97032       180.500
 30  1.98035       176.000
 31  1.99064       171.500
 32  2.00120       167.000
 33  2.01204       162.500
 34  2.02318       158.000
 35  2.03463       153.500
 36  2.04641       149.000
 37  2.05853       144.500
 38  2.07101       140.000
 39  2.08245       136.000
 40  2.09419       132.000
 41  2.10627       128.000
 42  2.11871       124.000
 43  2.13153       120.000
 44  2.14475       116.000
 45  2.15840       112.000
 46  2.17252       108.000
 47  2.18529       104.500
 48  2.19844       101.000
 49  2.21008        98.000
 50  2.22003        95.500
 51  2.23021        93.000
 52  2.24067        90.500
 53  2.25139        88.000
 54  2.26241        85.500
 55  2.27374        83.000
 56  2.28539        80.500
 57  2.29740        78.000
 58  2.30728        76.000
 59  2.31739        74.000
 60  2.32777        72.000
 61  2.33843        70.000
 62  2.34938        68.000
 63  2.36065        66.000
 64  2.37224        64.000
 65  2.38419        62.000
 66  2.39651        60.000
 67  2.40795        58.200
 68  2.41972        56.400
 69  2.43187        54.600
 70  2.44440        52.800
 71  2.45735        51.000
 72  2.47074        49.200
 73  2.48461        47.400
 74  2.49899        45.600
 75  2.51225        44.000
 76  2.52596        42.400
 77  2.54017        40.800
 78  2.55492        39.200
 79  2.56928        37.700
 80  2.58418        36.200
 81  2.59968        34.700
 82  2.61582        33.200
 83  2.63153        31.800
 84  2.64789        30.400
 85  2.66498        29.000
 86  2.68158        27.700
 87  2.69891        26.400
 88  2.71708        25.100
 89  2.73469        23.900
 90  2.75316        22.700
 91  2.77261        21.500
 92  2.79143        20.400
 93  2.80581        19.600
 94  2.81790        18.950
 95  2.83042        18.300
 96  2.84342        17.650
 97  2.85588        17.050
 98  2.86880        16.450
 99  2.88225        15.850
100  2.89626        15.250
101  2.90967        14.700
102  2.92362        14.150
103  2.93816        13.600
104  2.95197        13.100
105  2.96640        12.600
106  2.98154        12.100
107  2.99742        11.600
108  3.01414        11.100
109  3.02999        10.650
110  3.04664        10.200
111  3.06422         9.750
112  3.08284         9.300
113  3.10038         8.900
114  3.11890         8.500
115  3.13860         8.100
116  3.15957         7.700
117  3.17917         7.350
118  3.19999         7.000
119  3.22226         6.650
120  3.24618         6.300
121  3.27276         5.940
122  3.29832         5.620
123  3.32423         5.320
124  3.35225         5.020
125  3.38070         4.740
126  3.41161         4.460
127  3.44302         4.200
128  3.47060         3.990
129  3.49590         3.810
130  3.52150         3.640
131  3.54889         3.470
132  3.57837         3.300
133  3.60829         3.140
134  3.63849         2.990
135  3.67104         2.840
136  3.70633         2.690
137  3.74216         2.550
138  3.78113         2.410
139  3.82076         2.280
140  3.86409         2.150
141  3.90817         2.030
142  3.95666         1.910
143  4.01050         1.790
144  4.06541         1.680
145  4.12617         1.570
146  4.19379         1.460
147  4.23441         1.400
