Sensor Model:   CX-1050-CU-1.4L
Serial Number:  X34525
Data Format:    4      (Log Ohms/Kelvin)
SetPoint Limit: 325.0      (Kelvin)
Temperature coefficient:  1 (Negative)
Number of Breakpoints:   146

No.   Units      Temperature (K)

  1  1.70839       325.000
  2  1.71492       319.000
  3  1.72104       313.500
  4  1.72729       308.000
  5  1.73369       302.500
  6  1.74024       297.000
  7  1.74694       291.500
  8  1.75380       286.000
  9  1.76083       280.500
 10  1.76802       275.000
 11  1.77538       269.500
 12  1.78223       264.500
 13  1.78924       259.500
 14  1.79640       254.500
 15  1.80372       249.500
 16  1.81122       244.500
 17  1.81889       239.500
 18  1.82674       234.500
 19  1.83477       229.500
 20  1.84300       224.500
 21  1.85143       219.500
 22  1.86007       214.500
 23  1.86893       209.500
 24  1.87801       204.500
 25  1.88733       199.500
 26  1.89689       194.500
 27  1.90671       189.500
 28  1.91577       185.000
 29  1.92505       180.500
 30  1.93457       176.000
 31  1.94433       171.500
 32  1.95435       167.000
 33  1.96463       162.500
 34  1.97519       158.000
 35  1.98604       153.500
 36  1.99720       149.000
 37  2.00868       144.500
 38  2.02050       140.000
 39  2.03131       136.000
 40  2.04242       132.000
 41  2.05384       128.000
 42  2.06560       124.000
 43  2.07771       120.000
 44  2.09019       116.000
 45  2.10308       112.000
 46  2.11640       108.000
 47  2.12844       104.500
 48  2.14084       101.000
 49  2.15181        98.000
 50  2.16118        95.500
 51  2.17077        93.000
 52  2.18060        90.500
 53  2.19069        88.000
 54  2.20105        85.500
 55  2.21170        83.000
 56  2.22264        80.500
 57  2.23391        78.000
 58  2.24318        76.000
 59  2.25267        74.000
 60  2.26241        72.000
 61  2.27240        70.000
 62  2.28267        68.000
 63  2.29322        66.000
 64  2.30409        64.000
 65  2.31527        62.000
 66  2.32681        60.000
 67  2.33750        58.200
 68  2.34852        56.400
 69  2.35987        54.600
 70  2.37158        52.800
 71  2.38367        51.000
 72  2.39617        49.200
 73  2.40911        47.400
 74  2.42252        45.600
 75  2.43487        44.000
 76  2.44763        42.400
 77  2.46086        40.800
 78  2.47458        39.200
 79  2.48883        37.600
 80  2.50272        36.100
 81  2.51714        34.600
 82  2.53216        33.100
 83  2.54676        31.700
 84  2.56196        30.300
 85  2.57783        28.900
 86  2.59322        27.600
 87  2.60930        26.300
 88  2.62614        25.000
 89  2.64245        23.800
 90  2.65954        22.600
 91  2.67753        21.400
 92  2.69493        20.300
 93  2.70820        19.500
 94  2.71937        18.850
 95  2.73093        18.200
 96  2.74292        17.550
 97  2.75537        16.900
 98  2.76734        16.300
 99  2.77977        15.700
100  2.79272        15.100
101  2.80511        14.550
102  2.81800        14.000
103  2.83145        13.450
104  2.84423        12.950
105  2.85758        12.450
106  2.87158        11.950
107  2.88626        11.450
108  2.90171        10.950
109  2.91636        10.500
110  2.93176        10.050
111  2.94802         9.600
112  2.96524         9.150
113  2.98147         8.750
114  2.99861         8.350
115  3.01684         7.950
116  3.03627         7.550
117  3.05444         7.200
118  3.07375         6.850
119  3.09442         6.500
120  3.11663         6.150
121  3.13920         5.820
122  3.16282         5.500
123  3.18677         5.200
124  3.21269         4.900
125  3.23902         4.620
126  3.26766         4.340
127  3.29679         4.080
128  3.32114         3.880
129  3.34456         3.700
130  3.36828         3.530
131  3.39369         3.360
132  3.41942         3.200
133  3.44707         3.040
134  3.47699         2.880
135  3.50742         2.730
136  3.53817         2.590
137  3.57154         2.450
138  3.60802         2.310
139  3.64520         2.180
140  3.68279         2.060
141  3.72406         1.940
142  3.76969         1.820
143  3.82043         1.700
144  3.87223         1.590
145  3.92953         1.480
146  3.97557         1.400
