Sensor Model:   CX-1050-CU-1.4L
Serial Number:  X34526
Data Format:    4      (Log Ohms/Kelvin)
SetPoint Limit: 325.0      (Kelvin)
Temperature coefficient:  1 (Negative)
Number of Breakpoints:   147

No.   Units      Temperature (K)

  1  1.75476       325.000
  2  1.76176       319.000
  3  1.76832       313.500
  4  1.77503       308.000
  5  1.78190       302.500
  6  1.78892       297.000
  7  1.79611       291.500
  8  1.80346       286.000
  9  1.81099       280.500
 10  1.81870       275.000
 11  1.82659       269.500
 12  1.83394       264.500
 13  1.84144       259.500
 14  1.84912       254.500
 15  1.85697       249.500
 16  1.86500       244.500
 17  1.87321       239.500
 18  1.88162       234.500
 19  1.89024       229.500
 20  1.89905       224.500
 21  1.90809       219.500
 22  1.91735       214.500
 23  1.92684       209.500
 24  1.93657       204.500
 25  1.94656       199.500
 26  1.95681       194.500
 27  1.96734       189.500
 28  1.97706       185.000
 29  1.98702       180.500
 30  1.99724       176.000
 31  2.00771       171.500
 32  2.01846       167.000
 33  2.02950       162.500
 34  2.04084       158.000
 35  2.05250       153.500
 36  2.06449       149.000
 37  2.07683       144.500
 38  2.08954       140.000
 39  2.10118       136.000
 40  2.11313       132.000
 41  2.12542       128.000
 42  2.13808       124.000
 43  2.15113       120.000
 44  2.16459       116.000
 45  2.17848       112.000
 46  2.19285       108.000
 47  2.20585       104.500
 48  2.21924       101.000
 49  2.23109        98.000
 50  2.24123        95.500
 51  2.25160        93.000
 52  2.26224        90.500
 53  2.27316        88.000
 54  2.28438        85.500
 55  2.29591        83.000
 56  2.30777        80.500
 57  2.31999        78.000
 58  2.33004        76.000
 59  2.34034        74.000
 60  2.35091        72.000
 61  2.36176        70.000
 62  2.37291        68.000
 63  2.38438        66.000
 64  2.39619        64.000
 65  2.40836        62.000
 66  2.42091        60.000
 67  2.43255        58.200
 68  2.44454        56.400
 69  2.45691        54.600
 70  2.46967        52.800
 71  2.48286        51.000
 72  2.49650        49.200
 73  2.51063        47.400
 74  2.52527        45.600
 75  2.53878        44.000
 76  2.55274        42.400
 77  2.56721        40.800
 78  2.58224        39.200
 79  2.59687        37.700
 80  2.61205        36.200
 81  2.62784        34.700
 82  2.64430        33.200
 83  2.66031        31.800
 84  2.67699        30.400
 85  2.69442        29.000
 86  2.71134        27.700
 87  2.72903        26.400
 88  2.74757        25.100
 89  2.76555        23.900
 90  2.78440        22.700
 91  2.80427        21.500
 92  2.82350        20.400
 93  2.83818        19.600
 94  2.85054        18.950
 95  2.86333        18.300
 96  2.87662        17.650
 97  2.88936        17.050
 98  2.90257        16.450
 99  2.91632        15.850
100  2.93065        15.250
101  2.94436        14.700
102  2.95864        14.150
103  2.97355        13.600
104  2.98916        13.050
105  3.00403        12.550
106  3.01959        12.050
107  3.03593        11.550
108  3.05313        11.050
109  3.06945        10.600
110  3.08661        10.150
111  3.10475         9.700
112  3.12179         9.300
113  3.13976         8.900
114  3.15879         8.500
115  3.17902         8.100
116  3.20058         7.700
117  3.22074         7.350
118  3.24218         7.000
119  3.26513         6.650
120  3.28978         6.300
121  3.31719         5.940
122  3.34355         5.620
123  3.37029         5.320
124  3.39919         5.020
125  3.42855         4.740
126  3.46043         4.460
127  3.49282         4.200
128  3.52126         3.990
129  3.54735         3.810
130  3.57375         3.640
131  3.60202         3.470
132  3.63063         3.310
133  3.66138         3.150
134  3.69463         2.990
135  3.72843         2.840
136  3.76260         2.700
137  3.79964         2.560
138  3.84007         2.420
139  3.88116         2.290
140  3.92608         2.160
141  3.97556         2.030
142  4.02593         1.910
143  4.08137         1.790
144  4.14298         1.670
145  4.20601         1.560
146  4.27020         1.460
147  4.31368         1.400
148  4.744           1.100
