Sensor Model:   CX-1050-CU-1.4L
Serial Number:  X34504
Data Format:    4      (Log Ohms/Kelvin)
SetPoint Limit: 325.0      (Kelvin)
Temperature coefficient:  1 (Negative)
Number of Breakpoints:   148

No.   Units      Temperature (K)

  1  1.75526       325.000
  2  1.76219       319.000
  3  1.76868       313.500
  4  1.77532       308.000
  5  1.78211       302.500
  6  1.78906       297.000
  7  1.79617       291.500
  8  1.80344       286.000
  9  1.81089       280.500
 10  1.81852       275.000
 11  1.82562       270.000
 12  1.83288       265.000
 13  1.84029       260.000
 14  1.84788       255.000
 15  1.85564       250.000
 16  1.86358       245.000
 17  1.87171       240.000
 18  1.88003       235.000
 19  1.88854       230.000
 20  1.89727       225.000
 21  1.90621       220.000
 22  1.91537       215.000
 23  1.92477       210.000
 24  1.93440       205.000
 25  1.94429       200.000
 26  1.95443       195.000
 27  1.96380       190.500
 28  1.97340       186.000
 29  1.98323       181.500
 30  1.99331       177.000
 31  2.00366       172.500
 32  2.01427       168.000
 33  2.02517       163.500
 34  2.03637       159.000
 35  2.04788       154.500
 36  2.05972       150.000
 37  2.07190       145.500
 38  2.08445       141.000
 39  2.09594       137.000
 40  2.10774       133.000
 41  2.11988       129.000
 42  2.13238       125.000
 43  2.14525       121.000
 44  2.15853       117.000
 45  2.17224       113.000
 46  2.18641       109.000
 47  2.19922       105.500
 48  2.21242       102.000
 49  2.22409        99.000
 50  2.23407        96.500
 51  2.24428        94.000
 52  2.25476        91.500
 53  2.26551        89.000
 54  2.27656        86.500
 55  2.28791        84.000
 56  2.29958        81.500
 57  2.31161        79.000
 58  2.32150        77.000
 59  2.33163        75.000
 60  2.34202        73.000
 61  2.35267        71.000
 62  2.36363        69.000
 63  2.37488        67.000
 64  2.38647        65.000
 65  2.39840        63.000
 66  2.41070        61.000
 67  2.42340        59.000
 68  2.43519        57.200
 69  2.44733        55.400
 70  2.45987        53.600
 71  2.47281        51.800
 72  2.48619        50.000
 73  2.50004        48.200
 74  2.51440        46.400
 75  2.52763        44.800
 76  2.54130        43.200
 77  2.55547        41.600
 78  2.57109        39.900
 79  2.58640        38.300
 80  2.60131        36.800
 81  2.61680        35.300
 82  2.63293        33.800
 83  2.64861        32.400
 84  2.66494        31.000
 85  2.68199        29.600
 86  2.69852        28.300
 87  2.71578        27.000
 88  2.73386        25.700
 89  2.75135        24.500
 90  2.76968        23.300
 91  2.78896        22.100
 92  2.80758        21.000
 93  2.82357        20.100
 94  2.83652        19.400
 95  2.84896        18.750
 96  2.86185        18.100
 97  2.87524        17.450
 98  2.88809        16.850
 99  2.90143        16.250
100  2.91532        15.650
101  2.92858        15.100
102  2.94239        14.550
103  2.95677        14.000
104  2.97177        13.450
105  2.98605        12.950
106  3.00099        12.450
107  3.01666        11.950
108  3.03311        11.450
109  3.04868        11.000
110  3.06501        10.550
111  3.08223        10.100
112  3.10041         9.650
113  3.11968         9.200
114  3.13785         8.800
115  3.15706         8.400
116  3.17751         8.000
117  3.19931         7.600
118  3.21972         7.250
119  3.24143         6.900
120  3.26468         6.550
121  3.28970         6.200
122  3.31594         5.860
123  3.34264         5.540
124  3.36976         5.240
125  3.39714         4.960
126  3.42680         4.680
127  3.45915         4.400
128  3.49206         4.140
129  3.52101         3.930
130  3.54762         3.750
131  3.57456         3.580
132  3.60345         3.410
133  3.63272         3.250
134  3.66418         3.090
135  3.69823         2.930
136  3.73285         2.780
137  3.76786         2.640
138  3.80582         2.500
139  3.84731         2.360
140  3.88958         2.230
141  3.93230         2.110
142  3.97916         1.990
143  4.03100         1.870
144  4.08865         1.750
145  4.14757         1.640
146  4.21284         1.530
147  4.28548         1.420
148  4.30025         1.400
