Sensor Model:   CX-1050-CU-1.4L
Serial Number:  X34524
Data Format:    4      (Log Ohms/Kelvin)
SetPoint Limit: 325.0      (Kelvin)
Temperature coefficient:  1 (Negative)
Number of Breakpoints:   147

No.   Units      Temperature (K)

  1  1.72675       325.000
  2  1.73332       319.000
  3  1.73947       313.500
  4  1.74577       308.000
  5  1.75222       302.500
  6  1.75882       297.000
  7  1.76558       291.500
  8  1.77249       286.000
  9  1.77958       280.500
 10  1.78617       275.500
 11  1.79291       270.500
 12  1.79980       265.500
 13  1.80685       260.500
 14  1.81406       255.500
 15  1.82143       250.500
 16  1.82898       245.500
 17  1.83670       240.500
 18  1.84461       235.500
 19  1.85271       230.500
 20  1.86101       225.500
 21  1.86952       220.500
 22  1.87824       215.500
 23  1.88718       210.500
 24  1.89635       205.500
 25  1.90576       200.500
 26  1.91542       195.500
 27  1.92435       191.000
 28  1.93348       186.500
 29  1.94285       182.000
 30  1.95245       177.500
 31  1.96230       173.000
 32  1.97241       168.500
 33  1.98279       164.000
 34  1.99345       159.500
 35  2.00441       155.000
 36  2.01568       150.500
 37  2.02728       146.000
 38  2.03922       141.500
 39  2.05015       137.500
 40  2.06138       133.500
 41  2.07293       129.500
 42  2.08482       125.500
 43  2.09707       121.500
 44  2.10969       117.500
 45  2.12273       113.500
 46  2.13620       109.500
 47  2.14837       106.000
 48  2.16091       102.500
 49  2.17200        99.500
 50  2.18147        97.000
 51  2.19116        94.500
 52  2.20110        92.000
 53  2.21130        89.500
 54  2.22176        87.000
 55  2.23252        84.500
 56  2.24358        82.000
 57  2.25497        79.500
 58  2.26435        77.500
 59  2.27393        75.500
 60  2.28376        73.500
 61  2.29385        71.500
 62  2.30420        69.500
 63  2.31485        67.500
 64  2.32580        65.500
 65  2.33707        63.500
 66  2.34869        61.500
 67  2.36127        59.400
 68  2.37241        57.600
 69  2.38388        55.800
 70  2.39571        54.000
 71  2.40793        52.200
 72  2.42055        50.400
 73  2.43360        48.600
 74  2.44712        46.800
 75  2.46114        45.000
 76  2.47407        43.400
 77  2.48744        41.800
 78  2.50130        40.200
 79  2.51569        38.600
 80  2.53066        37.000
 81  2.54525        35.500
 82  2.56042        34.000
 83  2.57624        32.500
 84  2.59163        31.100
 85  2.60768        29.700
 86  2.62445        28.300
 87  2.64075        27.000
 88  2.65779        25.700
 89  2.67567        24.400
 90  2.69302        23.200
 91  2.71123        22.000
 92  2.72883        20.900
 93  2.74224        20.100
 94  2.75350        19.450
 95  2.76515        18.800
 96  2.77721        18.150
 97  2.78974        17.500
 98  2.80174        16.900
 99  2.81420        16.300
100  2.82716        15.700
101  2.84066        15.100
102  2.85359        14.550
103  2.86703        14.000
104  2.88105        13.450
105  2.89439        12.950
106  2.90833        12.450
107  2.92295        11.950
108  2.93828        11.450
109  2.95443        10.950
110  2.96975        10.500
111  2.98586        10.050
112  3.00287         9.600
113  3.02089         9.150
114  3.03788         8.750
115  3.05584         8.350
116  3.07495         7.950
117  3.09532         7.550
118  3.11438         7.200
119  3.13464         6.850
120  3.15635         6.500
121  3.17968         6.150
122  3.20341         5.820
123  3.22825         5.500
124  3.25346         5.200
125  3.28076         4.900
126  3.30853         4.620
127  3.33653         4.360
128  3.36702         4.100
129  3.39259         3.900
130  3.41577         3.730
131  3.44053         3.560
132  3.46710         3.390
133  3.49400         3.230
134  3.52291         3.070
135  3.55417         2.910
136  3.58595         2.760
137  3.61807         2.620
138  3.65290         2.480
139  3.69095         2.340
140  3.72970         2.210
141  3.76886         2.090
142  3.81180         1.970
143  3.85928         1.850
144  3.91205         1.730
145  3.96594         1.620
146  4.02560         1.510
147  4.09198         1.400
