Sensor Model:   CX-1050-CU-1.4L
Serial Number:  X50830
Data Format:    4      (Log Ohms/Kelvin)
SetPoint Limit: 325.0      (Kelvin)
Temperature coefficient:  1 (Negative)
Number of Breakpoints:   147

No.   Units      Temperature (K)

  1  1.89105       325.000
  2  1.89863       319.000
  3  1.90573       313.500
  4  1.91299       308.000
  5  1.92039       302.500
  6  1.92795       297.000
  7  1.93568       291.500
  8  1.94358       286.000
  9  1.95165       280.500
 10  1.95990       275.000
 11  1.96833       269.500
 12  1.97696       264.000
 13  1.98579       258.500
 14  1.99482       253.000
 15  2.00407       247.500
 16  2.01354       242.000
 17  2.02235       237.000
 18  2.03136       232.000
 19  2.04057       227.000
 20  2.04999       222.000
 21  2.05962       217.000
 22  2.06949       212.000
 23  2.07959       207.000
 24  2.08994       202.000
 25  2.10054       197.000
 26  2.11141       192.000
 27  2.12256       187.000
 28  2.13399       182.000
 29  2.14573       177.000
 30  2.15656       172.500
 31  2.16766       168.000
 32  2.17903       163.500
 33  2.19069       159.000
 34  2.20266       154.500
 35  2.21495       150.000
 36  2.22756       145.500
 37  2.24053       141.000
 38  2.25387       136.500
 39  2.26761       132.000
 40  2.28017       128.000
 41  2.29308       124.000
 42  2.30635       120.000
 43  2.32002       116.000
 44  2.33411       112.000
 45  2.34864       108.000
 46  2.36365       104.000
 47  2.37722       100.500
 48  2.38718        98.000
 49  2.39734        95.500
 50  2.40774        93.000
 51  2.41839        90.500
 52  2.42930        88.000
 53  2.44048        85.500
 54  2.45195        83.000
 55  2.46373        80.500
 56  2.47584        78.000
 57  2.48830        75.500
 58  2.49854        73.500
 59  2.50903        71.500
 60  2.51978        69.500
 61  2.53081        67.500
 62  2.54214        65.500
 63  2.55378        63.500
 64  2.56576        61.500
 65  2.57872        59.400
 66  2.59144        57.400
 67  2.60458        55.400
 68  2.61814        53.400
 69  2.63075        51.600
 70  2.64376        49.800
 71  2.65719        48.000
 72  2.67108        46.200
 73  2.68547        44.400
 74  2.70039        42.600
 75  2.71415        41.000
 76  2.72927        39.300
 77  2.74407        37.700
 78  2.75944        36.100
 79  2.77442        34.600
 80  2.78999        33.100
 81  2.80621        31.600
 82  2.82200        30.200
 83  2.83846        28.800
 84  2.85567        27.400
 85  2.87242        26.100
 86  2.88994        24.800
 87  2.90692        23.600
 88  2.92473        22.400
 89  2.94351        21.200
 90  2.96168        20.100
 91  2.96690        19.800
 92  2.97558        19.300
 93  2.98728        18.650
 94  2.99941        18.000
 95  3.01201        17.350
 96  3.02412        16.750
 97  3.03669        16.150
 98  3.04980        15.550
 99  3.06234        15.000
100  3.07541        14.450
101  3.08906        13.900
102  3.10203        13.400
103  3.11558        12.900
104  3.12978        12.400
105  3.14471        11.900
106  3.15883        11.450
107  3.17365        11.000
108  3.18925        10.550
109  3.20574        10.100
110  3.22320         9.650
111  3.23967         9.250
112  3.25708         8.850
113  3.27559         8.450
114  3.29533         8.050
115  3.31377         7.700
116  3.33336         7.350
117  3.35433         7.000
118  3.37681         6.650
119  3.40105         6.300
120  3.42809         5.940
121  3.45252         5.640
122  3.47890         5.340
123  3.50754         5.040
124  3.53668         4.760
125  3.56844         4.480
126  3.60078         4.220
127  3.62786         4.020
128  3.65244         3.850
129  3.67873         3.680
130  3.70697         3.510
131  3.73559         3.350
132  3.76638         3.190
133  3.79760         3.040
134  3.83129         2.890
135  3.86792         2.740
136  3.90517         2.600
137  3.94570         2.460
138  3.98689         2.330
139  4.03180         2.200
140  4.08119         2.070
141  4.13148         1.950
142  4.18689         1.830
143  4.24335         1.720
144  4.30032         1.620
145  4.36388         1.520
146  4.43503         1.420
147  4.45094         1.400
