Sensor Model:   CX-1050-CU-1.4L
Serial Number:  X50921
Data Format:    4      (Log Ohms/Kelvin)
SetPoint Limit: 325.0      (Kelvin)
Temperature coefficient:  1 (Negative)
Number of Breakpoints:   146

No.   Units      Temperature (K)

  1  1.78124       325.000
  2  1.78846       319.000
  3  1.79523       313.500
  4  1.80215       308.000
  5  1.80922       302.500
  6  1.81646       297.000
  7  1.82386       291.500
  8  1.83143       286.000
  9  1.83917       280.500
 10  1.84711       275.000
 11  1.85522       269.500
 12  1.86354       264.000
 13  1.87128       259.000
 14  1.87918       254.000
 15  1.88727       249.000
 16  1.89554       244.000
 17  1.90399       239.000
 18  1.91265       234.000
 19  1.92150       229.000
 20  1.93057       224.000
 21  1.93986       219.000
 22  1.94936       214.000
 23  1.95911       209.000
 24  1.96910       204.000
 25  1.97934       199.000
 26  1.98984       194.000
 27  2.00061       189.000
 28  2.01167       184.000
 29  2.02189       179.500
 30  2.03235       175.000
 31  2.04307       170.500
 32  2.05407       166.000
 33  2.06535       161.500
 34  2.07693       157.000
 35  2.08882       152.500
 36  2.10104       148.000
 37  2.11361       143.500
 38  2.12654       139.000
 39  2.13985       134.500
 40  2.15204       130.500
 41  2.16455       126.500
 42  2.17742       122.500
 43  2.19067       118.500
 44  2.20432       114.500
 45  2.21840       110.500
 46  2.23294       106.500
 47  2.24797       102.500
 48  2.25961        99.500
 49  2.26953        97.000
 50  2.27968        94.500
 51  2.29007        92.000
 52  2.30071        89.500
 53  2.31163        87.000
 54  2.32282        84.500
 55  2.33432        82.000
 56  2.34614        79.500
 57  2.35828        77.000
 58  2.37079        74.500
 59  2.38108        72.500
 60  2.39162        70.500
 61  2.40243        68.500
 62  2.41353        66.500
 63  2.42493        64.500
 64  2.43666        62.500
 65  2.44873        60.500
 66  2.46053        58.600
 67  2.47333        56.600
 68  2.48655        54.600
 69  2.49884        52.800
 70  2.51149        51.000
 71  2.52456        49.200
 72  2.53806        47.400
 73  2.55203        45.600
 74  2.56651        43.800
 75  2.57984        42.200
 76  2.59362        40.600
 77  2.60789        39.000
 78  2.62269        37.400
 79  2.63807        35.800
 80  2.65306        34.300
 81  2.66863        32.800
 82  2.68485        31.300
 83  2.70065        29.900
 84  2.71710        28.500
 85  2.73432        27.100
 86  2.75105        25.800
 87  2.76856        24.500
 88  2.78554        23.300
 89  2.80334        22.100
 90  2.82210        20.900
 91  2.83528        20.100
 92  2.84630        19.450
 93  2.85772        18.800
 94  2.86955        18.150
 95  2.88182        17.500
 96  2.89358        16.900
 97  2.90579        16.300
 98  2.91849        15.700
 99  2.93173        15.100
100  2.94440        14.550
101  2.95761        14.000
102  2.97143        13.450
103  2.98458        12.950
104  2.99834        12.450
105  3.01277        11.950
106  3.02795        11.450
107  3.04233        11.000
108  3.05743        10.550
109  3.07338        10.100
110  3.09023         9.650
111  3.10611         9.250
112  3.12286         8.850
113  3.14065         8.450
114  3.15959         8.050
115  3.17725         7.700
116  3.19599         7.350
117  3.21602         7.000
118  3.23746         6.650
119  3.26054         6.300
120  3.28625         5.940
121  3.30944         5.640
122  3.33443         5.340
123  3.36154         5.040
124  3.38906         4.760
125  3.41899         4.480
126  3.44942         4.220
127  3.47483         4.020
128  3.49786         3.850
129  3.52245         3.680
130  3.54879         3.510
131  3.57543         3.350
132  3.60403         3.190
133  3.63493         3.030
134  3.66630         2.880
135  3.70029         2.730
136  3.73485         2.590
137  3.77243         2.450
138  3.81063         2.320
139  3.85230         2.190
140  3.89813         2.060
141  3.94469         1.940
142  3.99578         1.820
143  4.05235         1.700
144  4.11004         1.590
145  4.16838         1.490
146  4.22814         1.400
