Sensor Model:   CX-1050-CU-1.4L
Serial Number:  X50923
Data Format:    4      (Log Ohms/Kelvin)
SetPoint Limit: 325.0      (Kelvin)
Temperature coefficient:  1 (Negative)
Number of Breakpoints:   145

No.   Units      Temperature (K)

  1  1.72804       325.000
  2  1.73429       319.000
  3  1.74015       313.500
  4  1.74615       308.000
  5  1.75228       302.500
  6  1.75856       297.000
  7  1.76498       291.500
  8  1.77156       286.000
  9  1.77829       280.500
 10  1.78518       275.000
 11  1.79224       269.500
 12  1.79881       264.500
 13  1.80553       259.500
 14  1.81239       254.500
 15  1.81941       249.500
 16  1.82660       244.500
 17  1.83395       239.500
 18  1.84147       234.500
 19  1.84917       229.500
 20  1.85705       224.500
 21  1.86512       219.500
 22  1.87339       214.500
 23  1.88187       209.500
 24  1.89055       204.500
 25  1.89946       199.500
 26  1.90859       194.500
 27  1.91796       189.500
 28  1.92757       184.500
 29  1.93745       179.500
 30  1.94657       175.000
 31  1.95591       170.500
 32  1.96549       166.000
 33  1.97532       161.500
 34  1.98540       157.000
 35  1.99576       152.500
 36  2.00640       148.000
 37  2.01733       143.500
 38  2.02858       139.000
 39  2.04016       134.500
 40  2.05075       130.500
 41  2.06162       126.500
 42  2.07280       122.500
 43  2.08431       118.500
 44  2.09616       114.500
 45  2.10837       110.500
 46  2.12097       106.500
 47  2.13400       102.500
 48  2.14408        99.500
 49  2.15267        97.000
 50  2.16145        94.500
 51  2.17044        92.000
 52  2.17965        89.500
 53  2.18909        87.000
 54  2.19877        84.500
 55  2.20870        82.000
 56  2.21891        79.500
 57  2.22940        77.000
 58  2.24019        74.500
 59  2.24906        72.500
 60  2.25814        70.500
 61  2.26746        68.500
 62  2.27702        66.500
 63  2.28683        64.500
 64  2.29692        62.500
 65  2.30730        60.500
 66  2.31745        58.600
 67  2.32845        56.600
 68  2.33980        54.600
 69  2.35152        52.600
 70  2.36242        50.800
 71  2.37366        49.000
 72  2.38527        47.200
 73  2.39727        45.400
 74  2.40969        43.600
 75  2.42257        41.800
 76  2.43445        40.200
 77  2.44672        38.600
 78  2.45945        37.000
 79  2.47267        35.400
 80  2.48554        33.900
 81  2.49891        32.400
 82  2.51283        30.900
 83  2.52637        29.500
 84  2.54047        28.100
 85  2.55521        26.700
 86  2.56954        25.400
 87  2.58452        24.100
 88  2.59903        22.900
 89  2.61424        21.700
 90  2.63027        20.500
 91  2.64223        19.650
 92  2.65168        19.000
 93  2.66146        18.350
 94  2.67159        17.700
 95  2.68210        17.050
 96  2.69219        16.450
 97  2.70267        15.850
 98  2.71358        15.250
 99  2.72401        14.700
100  2.73486        14.150
101  2.74618        13.600
102  2.75694        13.100
103  2.76817        12.600
104  2.77994        12.100
105  2.79229        11.600
106  2.80529        11.100
107  2.81763        10.650
108  2.83059        10.200
109  2.84428         9.750
110  2.85715         9.350
111  2.87071         8.950
112  2.88506         8.550
113  2.90031         8.150
114  2.91657         7.750
115  2.93175         7.400
116  2.94789         7.050
117  2.96515         6.700
118  2.98367         6.350
119  3.00483         5.980
120  3.02465         5.660
121  3.04471         5.360
122  3.06637         5.060
123  3.08992         4.760
124  3.11391         4.480
125  3.13816         4.220
126  3.15840         4.020
127  3.17779         3.840
128  3.19857         3.660
129  3.21960         3.490
130  3.24217         3.320
131  3.26506         3.160
132  3.28970         3.000
133  3.31470         2.850
134  3.34172         2.700
135  3.36915         2.560
136  3.39891         2.420
137  3.43147         2.280
138  3.46462         2.150
139  3.50089         2.020
140  3.54088         1.890
141  3.58170         1.770
142  3.62295         1.660
143  3.66856         1.550
144  3.71516         1.450
145  3.74132         1.400
