Sensor Model:   CX-1050-CU-1.4L
Serial Number:  X50903
Data Format:    4      (Log Ohms/Kelvin)
SetPoint Limit: 325.0      (Kelvin)
Temperature coefficient:  1 (Negative)
Number of Breakpoints:   146

No.   Units      Temperature (K)

  1  1.89093       325.000
  2  1.89855       319.000
  3  1.90567       313.500
  4  1.91295       308.000
  5  1.92038       302.500
  6  1.92797       297.000
  7  1.93573       291.500
  8  1.94366       286.000
  9  1.95177       280.500
 10  1.96005       275.000
 11  1.96853       269.500
 12  1.97720       264.000
 13  1.98607       258.500
 14  1.99515       253.000
 15  2.00445       247.500
 16  2.01397       242.000
 17  2.02283       237.000
 18  2.03189       232.000
 19  2.04115       227.000
 20  2.05062       222.000
 21  2.06031       217.000
 22  2.07023       212.000
 23  2.08039       207.000
 24  2.09080       202.000
 25  2.10146       197.000
 26  2.11239       192.000
 27  2.12359       187.000
 28  2.13509       182.000
 29  2.14689       177.000
 30  2.15779       172.500
 31  2.16895       168.000
 32  2.18039       163.500
 33  2.19212       159.000
 34  2.20416       154.500
 35  2.21653       150.000
 36  2.22923       145.500
 37  2.24229       141.000
 38  2.25573       136.500
 39  2.26957       132.000
 40  2.28223       128.000
 41  2.29523       124.000
 42  2.30862       120.000
 43  2.32239       116.000
 44  2.33659       112.000
 45  2.35123       108.000
 46  2.36635       104.000
 47  2.38002       100.500
 48  2.39005        98.000
 49  2.40028        95.500
 50  2.41076        93.000
 51  2.42148        90.500
 52  2.43247        88.000
 53  2.44373        85.500
 54  2.45529        83.000
 55  2.46717        80.500
 56  2.47938        78.000
 57  2.49195        75.500
 58  2.50489        73.000
 59  2.51554        71.000
 60  2.52645        69.000
 61  2.53765        67.000
 62  2.54915        65.000
 63  2.56097        63.000
 64  2.57314        61.000
 65  2.58566        59.000
 66  2.59857        57.000
 67  2.61190        55.000
 68  2.62429        53.200
 69  2.63704        51.400
 70  2.65021        49.600
 71  2.66381        47.800
 72  2.67787        46.000
 73  2.69245        44.200
 74  2.70756        42.400
 75  2.72150        40.800
 76  2.73592        39.200
 77  2.75088        37.600
 78  2.76643        36.000
 79  2.78159        34.500
 80  2.79734        33.000
 81  2.81375        31.500
 82  2.82974        30.100
 83  2.84640        28.700
 84  2.86383        27.300
 85  2.88079        26.000
 86  2.89716        24.800
 87  2.91428        23.600
 88  2.93227        22.400
 89  2.94963        21.300
 90  2.96787        20.200
 91  2.98184        19.400
 92  2.99360        18.750
 93  3.00578        18.100
 94  3.01844        17.450
 95  3.03059        16.850
 96  3.04321        16.250
 97  3.05636        15.650
 98  3.06893        15.100
 99  3.08201        14.550
100  3.09569        14.000
101  3.10869        13.500
102  3.12226        13.000
103  3.13649        12.500
104  3.15143        12.000
105  3.16716        11.500
106  3.18208        11.050
107  3.19775        10.600
108  3.21432        10.150
109  3.23185         9.700
110  3.24838         9.300
111  3.26584         8.900
112  3.28439         8.500
113  3.30417         8.100
114  3.32263         7.750
115  3.34223         7.400
116  3.36320         7.050
117  3.38568         6.700
118  3.40990         6.350
119  3.43230         6.050
120  3.45546         5.760
121  3.48132         5.460
122  3.50935         5.160
123  3.53782         4.880
124  3.56878         4.600
125  3.60024         4.340
126  3.63459         4.080
127  3.66352         3.880
128  3.68984         3.710
129  3.71805         3.540
130  3.74661         3.380
131  3.77729         3.220
132  3.81047         3.060
133  3.84419         2.910
134  3.87825         2.770
135  3.91516         2.630
136  3.95542         2.490
137  3.99632         2.360
138  4.04101         2.230
139  4.09020         2.100
140  4.14023         1.980
141  4.19516         1.860
142  4.25601         1.740
143  4.31795         1.630
144  4.38025         1.530
145  4.44332         1.440
146  4.47496         1.400
