Sensor Model:   CX-1050-CU-1.4L
Serial Number:  X51079
Data Format:    4      (Log Ohms/Kelvin)
SetPoint Limit: 325.0      (Kelvin)
Temperature coefficient:  1 (Negative)
Number of Breakpoints:   147

No.   Units      Temperature (K)

  1  1.77077       325.000
  2  1.77787       319.000
  3  1.78452       313.500
  4  1.79132       308.000
  5  1.79827       302.500
  6  1.80538       297.000
  7  1.81265       291.500
  8  1.82008       286.000
  9  1.82769       280.500
 10  1.83547       275.000
 11  1.84344       269.500
 12  1.85160       264.000
 13  1.85995       258.500
 14  1.86772       253.500
 15  1.87567       248.500
 16  1.88379       243.500
 17  1.89211       238.500
 18  1.90061       233.500
 19  1.90932       228.500
 20  1.91824       223.500
 21  1.92737       218.500
 22  1.93673       213.500
 23  1.94632       208.500
 24  1.95615       203.500
 25  1.96623       198.500
 26  1.97658       193.500
 27  1.98721       188.500
 28  1.99702       184.000
 29  2.00706       179.500
 30  2.01736       175.000
 31  2.02793       170.500
 32  2.03876       166.000
 33  2.04989       161.500
 34  2.06131       157.000
 35  2.07305       152.500
 36  2.08513       148.000
 37  2.09755       143.500
 38  2.11035       139.000
 39  2.12207       135.000
 40  2.13411       131.000
 41  2.14650       127.000
 42  2.15925       123.000
 43  2.17241       119.000
 44  2.18597       115.000
 45  2.19999       111.000
 46  2.21448       107.000
 47  2.22758       103.500
 48  2.23915       100.500
 49  2.24903        98.000
 50  2.25914        95.500
 51  2.26950        93.000
 52  2.28012        90.500
 53  2.29103        88.000
 54  2.30222        85.500
 55  2.31374        83.000
 56  2.32558        80.500
 57  2.33778        78.000
 58  2.34783        76.000
 59  2.35810        74.000
 60  2.36866        72.000
 61  2.37949        70.000
 62  2.39062        68.000
 63  2.40207        66.000
 64  2.41385        64.000
 65  2.42600        62.000
 66  2.43852        60.000
 67  2.45014        58.200
 68  2.46211        56.400
 69  2.47445        54.600
 70  2.48719        52.800
 71  2.50035        51.000
 72  2.51396        49.200
 73  2.52806        47.400
 74  2.54267        45.600
 75  2.55615        44.000
 76  2.57009        42.400
 77  2.58454        40.800
 78  2.59954        39.200
 79  2.61415        37.700
 80  2.62932        36.200
 81  2.64509        34.700
 82  2.66153        33.200
 83  2.67753        31.800
 84  2.69420        30.400
 85  2.71162        29.000
 86  2.72854        27.700
 87  2.74622        26.400
 88  2.76476        25.100
 89  2.78274        23.900
 90  2.80159        22.700
 91  2.82146        21.500
 92  2.84069        20.400
 93  2.85537        19.600
 94  2.86772        18.950
 95  2.88051        18.300
 96  2.89378        17.650
 97  2.90651        17.050
 98  2.91971        16.450
 99  2.93344        15.850
100  2.94775        15.250
101  2.96143        14.700
102  2.97568        14.150
103  2.99057        13.600
104  3.00471        13.100
105  3.01949        12.600
106  3.03497        12.100
107  3.05122        11.600
108  3.06833        11.100
109  3.08456        10.650
110  3.10162        10.200
111  3.11965         9.750
112  3.13659         9.350
113  3.15443         8.950
114  3.17332         8.550
115  3.19340         8.150
116  3.21478         7.750
117  3.23477         7.400
118  3.25601         7.050
119  3.27873         6.700
120  3.30311         6.350
121  3.33098         5.980
122  3.35711         5.660
123  3.38356         5.360
124  3.41215         5.060
125  3.44116         4.780
126  3.47266         4.500
127  3.50464         4.240
128  3.53405         4.020
129  3.55992         3.840
130  3.58602         3.670
131  3.61398         3.500
132  3.64226         3.340
133  3.67262         3.180
134  3.70543         3.020
135  3.73875         2.870
136  3.77484         2.720
137  3.81154         2.580
138  3.85144         2.440
139  3.89199         2.310
140  3.93625         2.180
141  3.98497         2.050
142  4.03457         1.930
143  4.08916         1.810
144  4.14986         1.690
145  4.21200         1.580
146  4.27508         1.480
147  4.33204         1.400
