Sensor Model:   CX-1010-AA-1.4L
Serial Number:  X58599
Data Format:    4      (Log Ohms/Kelvin)
SetPoint Limit: 325.0      (Kelvin)
Temperature coefficient:  1 (Negative)
Number of Breakpoints:   140

No.   Units      Temperature (K)

  1  1.61336       325.000
  2  1.61822       319.000
  3  1.62278       313.500
  4  1.62744       308.000
  5  1.63220       302.500
  6  1.63706       297.000
  7  1.64202       291.500
  8  1.64708       286.000
  9  1.65225       280.500
 10  1.65752       275.000
 11  1.66291       269.500
 12  1.66840       264.000
 13  1.67401       258.500
 14  1.67975       253.000
 15  1.68560       247.500
 16  1.69159       242.000
 17  1.69771       236.500
 18  1.70397       231.000
 19  1.71038       225.500
 20  1.71694       220.000
 21  1.72304       215.000
 22  1.72928       210.000
 23  1.73566       205.000
 24  1.74218       200.000
 25  1.74886       195.000
 26  1.75569       190.000
 27  1.76268       185.000
 28  1.76984       180.000
 29  1.77718       175.000
 30  1.78470       170.000
 31  1.79240       165.000
 32  1.80030       160.000
 33  1.80841       155.000
 34  1.81673       150.000
 35  1.82441       145.500
 36  1.83227       141.000
 37  1.84034       136.500
 38  1.84861       132.000
 39  1.85711       127.500
 40  1.86585       123.000
 41  1.87484       118.500
 42  1.88306       114.500
 43  1.89149       110.500
 44  1.90018       106.500
 45  1.90911       102.500
 46  1.91601        99.500
 47  1.92187        97.000
 48  1.92785        94.500
 49  1.93396        92.000
 50  1.94019        89.500
 51  1.94657        87.000
 52  1.95310        84.500
 53  1.95979        82.000
 54  1.96664        79.500
 55  1.97367        77.000
 56  1.98088        74.500
 57  1.98829        72.000
 58  1.99592        69.500
 59  2.00219        67.500
 60  2.00861        65.500
 61  2.01520        63.500
 62  2.02196        61.500
 63  2.02925        59.400
 64  2.03641        57.400
 65  2.04377        55.400
 66  2.05136        53.400
 67  2.05919        51.400
 68  2.06728        49.400
 69  2.07480        47.600
 70  2.08255        45.800
 71  2.09055        44.000
 72  2.09883        42.200
 73  2.10740        40.400
 74  2.11578        38.700
 75  2.12447        37.000
 76  2.13295        35.400
 77  2.14173        33.800
 78  2.15086        32.200
 79  2.15977        30.700
 80  2.16902        29.200
 81  2.17802        27.800
 82  2.18740        26.400
 83  2.19719        25.000
 84  2.20671        23.700
 85  2.21591        22.500
 86  2.22553        21.300
 87  2.23564        20.100
 88  2.23743        19.900
 89  2.24227        19.350
 90  2.24865        18.650
 91  2.25526        17.950
 92  2.26162        17.300
 93  2.26821        16.650
 94  2.27506        16.000
 95  2.28164        15.400
 96  2.28848        14.800
 97  2.29562        14.200
 98  2.30242        13.650
 99  2.30951        13.100
100  2.31695        12.550
101  2.32404        12.050
102  2.33144        11.550
103  2.33922        11.050
104  2.34739        10.550
105  2.35514        10.100
106  2.36328         9.650
107  2.37188         9.200
108  2.38098         8.750
109  2.38956         8.350
110  2.39863         7.950
111  2.40826         7.550
112  2.41854         7.150
113  2.42814         6.800
114  2.43835         6.450
115  2.44929         6.100
116  2.46069         5.760
117  2.47224         5.440
118  2.48388         5.140
119  2.49642         4.840
120  2.51001         4.540
121  2.52380         4.260
122  2.53662         4.020
123  2.54808         3.820
124  2.55908         3.640
125  2.57081         3.460
126  2.58338         3.280
127  2.59613         3.110
128  2.60900         2.950
129  2.62284         2.790
130  2.63685         2.640
131  2.65196         2.490
132  2.66839         2.340
133  2.68512         2.200
134  2.70205         2.070
135  2.72052         1.940
136  2.74084         1.810
137  2.76152         1.690
138  2.78426         1.570
139  2.80947         1.450
140  2.82107         1.400
