Sensor Model:   CX-1030-SD-0.3L
Serial Number:  X58542
Data Format:    4      (Log Ohms/Kelvin)
SetPoint Limit: 325.0      (Kelvin)
Temperature coefficient:  1 (Negative)
Number of Breakpoints:   176

No.   Units      Temperature (K)

  1  1.66511       325.000
  2  1.67036       319.000
  3  1.67527       313.500
  4  1.68027       308.000
  5  1.68538       302.500
  6  1.69060       297.000
  7  1.69592       291.500
  8  1.70135       286.000
  9  1.70690       280.500
 10  1.71257       275.000
 11  1.71836       269.500
 12  1.72428       264.000
 13  1.73033       258.500
 14  1.73651       253.000
 15  1.74283       247.500
 16  1.74929       242.000
 17  1.75590       236.500
 18  1.76267       231.000
 19  1.76960       225.500
 20  1.77669       220.000
 21  1.78395       214.500
 22  1.79070       209.500
 23  1.79761       204.500
 24  1.80467       199.500
 25  1.81189       194.500
 26  1.81929       189.500
 27  1.82686       184.500
 28  1.83461       179.500
 29  1.84255       174.500
 30  1.85069       169.500
 31  1.85903       164.500
 32  1.86759       159.500
 33  1.87639       154.500
 34  1.88451       150.000
 35  1.89283       145.500
 36  1.90136       141.000
 37  1.91012       136.500
 38  1.91912       132.000
 39  1.92837       127.500
 40  1.93789       123.000
 41  1.94659       119.000
 42  1.95553       115.000
 43  1.96473       111.000
 44  1.97420       107.000
 45  1.98396       103.000
 46  1.99150       100.000
 47  1.99792        97.500
 48  2.00447        95.000
 49  2.01118        92.500
 50  2.01803        90.000
 51  2.02505        87.500
 52  2.03224        85.000
 53  2.03960        82.500
 54  2.04716        80.000
 55  2.05493        77.500
 56  2.06291        75.000
 57  2.07112        72.500
 58  2.07788        70.500
 59  2.08479        68.500
 60  2.09189        66.500
 61  2.09918        64.500
 62  2.10666        62.500
 63  2.11436        60.500
 64  2.12189        58.600
 65  2.13004        56.600
 66  2.13846        54.600
 67  2.14715        52.600
 68  2.15523        50.800
 69  2.16355        49.000
 70  2.17216        47.200
 71  2.18105        45.400
 72  2.19026        43.600
 73  2.19980        41.800
 74  2.20860        40.200
 75  2.21769        38.600
 76  2.22712        37.000
 77  2.23690        35.400
 78  2.24707        33.800
 79  2.25699        32.300
 80  2.26731        30.800
 81  2.27734        29.400
 82  2.28779        28.000
 83  2.29870        26.600
 84  2.30930        25.300
 85  2.32039        24.000
 86  2.33113        22.800
 87  2.34238        21.600
 88  2.35425        20.400
 89  2.36309        19.550
 90  2.37062        18.850
 91  2.37788        18.200
 92  2.38538        17.550
 93  2.39318        16.900
 94  2.40066        16.300
 95  2.40842        15.700
 96  2.41650        15.100
 97  2.42422        14.550
 98  2.43224        14.000
 99  2.44062        13.450
100  2.44939        12.900
101  2.45773        12.400
102  2.46645        11.900
103  2.47560        11.400
104  2.48523        10.900
105  2.49436        10.450
106  2.50395        10.000
107  2.51408         9.550
108  2.52480         9.100
109  2.53490         8.700
110  2.54557         8.300
111  2.55692         7.900
112  2.56900         7.500
113  2.58030         7.150
114  2.59229         6.800
115  2.60511         6.450
116  2.61886         6.100
117  2.63236         5.780
118  2.64687         5.460
119  2.66254         5.140
120  2.67845         4.840
121  2.69453         4.560
122  2.71195         4.280
123  2.72960         4.020
124  2.74430         3.820
125  2.75844         3.640
126  2.77273         3.470
127  2.78804         3.300
128  2.80356         3.140
129  2.82128         2.970
130  2.83913         2.810
131  2.85729         2.660
132  2.87696         2.510
133  2.89687         2.370
134  2.91852         2.230
135  2.94049         2.100
136  2.96447         1.970
137  2.98882         1.850
138  3.01553         1.730
139  3.04517         1.610
140  3.07544         1.500
141  3.10915         1.390
142  3.14361         1.290
143  3.17429         1.210
144  3.19515         1.160
145  3.21273         1.120
146  3.23131         1.080
147  3.25098         1.040
148  3.27184         1.000
149  3.29403         0.960
150  3.31770         0.920
151  3.33981         0.885
152  3.36327         0.850
153  3.38830         0.815
154  3.41509         0.780
155  3.44386         0.745
156  3.47487         0.710
157  3.50356         0.680
158  3.53427         0.650
159  3.56746         0.620
160  3.60341         0.590
161  3.64260         0.560
162  3.68560         0.530
163  3.72493         0.505
164  3.75716         0.486
165  3.78977         0.468
166  3.82466         0.450
167  3.86210         0.432
168  3.90234         0.414
169  3.94565         0.396
170  3.99235         0.378
171  4.03704         0.362
172  4.08486         0.346
173  4.13653         0.330
174  4.18557         0.316
175  4.23162         0.304
176  4.24824         0.300
