Sensor Model:   CX-1010-AA-1.4L
Serial Number:  X58600
Data Format:    4      (Log Ohms/Kelvin)
SetPoint Limit: 325.0      (Kelvin)
Temperature coefficient:  1 (Negative)
Number of Breakpoints:   138

No.   Units      Temperature (K)

  1  1.59238       325.000
  2  1.59721       319.000
  3  1.60173       313.500
  4  1.60633       308.000
  5  1.61103       302.500
  6  1.61583       297.000
  7  1.62074       291.500
  8  1.62574       286.000
  9  1.63085       280.500
 10  1.63607       275.000
 11  1.64141       269.500
 12  1.64686       264.000
 13  1.65244       258.500
 14  1.65813       253.000
 15  1.66396       247.500
 16  1.66991       242.000
 17  1.67601       236.500
 18  1.68224       231.000
 19  1.68862       225.500
 20  1.69515       220.000
 21  1.70183       214.500
 22  1.70868       209.000
 23  1.71505       204.000
 24  1.72155       199.000
 25  1.72821       194.000
 26  1.73502       189.000
 27  1.74199       184.000
 28  1.74912       179.000
 29  1.75642       174.000
 30  1.76390       169.000
 31  1.77156       164.000
 32  1.77942       159.000
 33  1.78748       154.000
 34  1.79576       149.000
 35  1.80340       144.500
 36  1.81123       140.000
 37  1.81926       135.500
 38  1.82750       131.000
 39  1.83597       126.500
 40  1.84467       122.000
 41  1.85362       117.500
 42  1.86180       113.500
 43  1.87021       109.500
 44  1.87885       105.500
 45  1.88775       101.500
 46  1.89461        98.500
 47  1.90045        96.000
 48  1.90640        93.500
 49  1.91248        91.000
 50  1.91868        88.500
 51  1.92503        86.000
 52  1.93153        83.500
 53  1.93818        81.000
 54  1.94500        78.500
 55  1.95201        76.000
 56  1.95921        73.500
 57  1.96660        71.000
 58  1.97420        68.500
 59  1.98046        66.500
 60  1.98687        64.500
 61  1.99345        62.500
 62  2.00020        60.500
 63  2.00679        58.600
 64  2.01391        56.600
 65  2.02125        54.600
 66  2.02882        52.600
 67  2.03663        50.600
 68  2.04469        48.600
 69  2.05219        46.800
 70  2.05992        45.000
 71  2.06791        43.200
 72  2.07617        41.400
 73  2.08521        39.500
 74  2.09361        37.800
 75  2.10230        36.100
 76  2.11080        34.500
 77  2.11961        32.900
 78  2.12877        31.300
 79  2.13771        29.800
 80  2.14638        28.400
 81  2.15541        27.000
 82  2.16482        25.600
 83  2.17396        24.300
 84  2.18351        23.000
 85  2.19276        21.800
 86  2.20244        20.600
 87  2.21007        19.700
 88  2.21621        19.000
 89  2.22256        18.300
 90  2.22867        17.650
 91  2.23499        17.000
 92  2.24155        16.350
 93  2.24784        15.750
 94  2.25437        15.150
 95  2.26117        14.550
 96  2.26826        13.950
 97  2.27503        13.400
 98  2.28145        12.900
 99  2.28815        12.400
100  2.29516        11.900
101  2.30249        11.400
102  2.31018        10.900
103  2.31746        10.450
104  2.32509        10.000
105  2.33312         9.550
106  2.34161         9.100
107  2.35059         8.650
108  2.35906         8.250
109  2.36802         7.850
110  2.37755         7.450
111  2.38772         7.050
112  2.39723         6.700
113  2.40735         6.350
114  2.41948         5.960
115  2.43091         5.620
116  2.44250         5.300
117  2.45421         5.000
118  2.46683         4.700
119  2.48055         4.400
120  2.49450         4.120
121  2.50640         3.900
122  2.51736         3.710
123  2.52845         3.530
124  2.54030         3.350
125  2.55230         3.180
126  2.56516         3.010
127  2.57821         2.850
128  2.59226         2.690
129  2.60651         2.540
130  2.62089         2.400
131  2.63646         2.260
132  2.65343         2.120
133  2.67068         1.990
134  2.68954         1.860
135  2.71036         1.730
136  2.73160         1.610
137  2.75502         1.490
138  2.77445         1.400
