Sensor Model:   CX-1050-CU-1.4L
Serial Number:  X63161
Data Format:    4      (Log Ohms/Kelvin)
SetPoint Limit: 325.0      (Kelvin)
Temperature coefficient:  1 (Negative)
Number of Breakpoints:   147
extendend: 1.4

No.   Units      Temperature (K)

  1  1.84804       325.000
  2  1.85539       319.000
  3  1.86226       313.500
  4  1.86928       308.000
  5  1.87645       302.500
  6  1.88378       297.000
  7  1.89126       291.500
  8  1.89892       286.000
  9  1.90674       280.500
 10  1.91475       275.000
 11  1.92294       269.500
 12  1.93132       264.000
 13  1.93990       258.500
 14  1.94868       253.000
 15  1.95767       247.500
 16  1.96605       242.500
 17  1.97460       237.500
 18  1.98335       232.500
 19  1.99230       227.500
 20  2.00146       222.500
 21  2.01084       217.500
 22  2.02044       212.500
 23  2.03027       207.500
 24  2.04035       202.500
 25  2.05067       197.500
 26  2.06126       192.500
 27  2.07212       187.500
 28  2.08327       182.500
 29  2.09357       178.000
 30  2.10411       173.500
 31  2.11492       169.000
 32  2.12600       164.500
 33  2.13737       160.000
 34  2.14905       155.500
 35  2.16104       151.000
 36  2.17337       146.500
 37  2.18606       142.000
 38  2.19912       137.500
 39  2.21107       133.500
 40  2.22334       129.500
 41  2.23596       125.500
 42  2.24896       121.500
 43  2.26234       117.500
 44  2.27614       113.500
 45  2.29039       109.500
 46  2.30511       105.500
 47  2.31843       102.000
 48  2.32820        99.500
 49  2.33818        97.000
 50  2.34840        94.500
 51  2.35887        92.000
 52  2.36960        89.500
 53  2.38062        87.000
 54  2.39193        84.500
 55  2.40355        82.000
 56  2.41551        79.500
 57  2.42782        77.000
 58  2.43795        75.000
 59  2.44832        73.000
 60  2.45897        71.000
 61  2.46989        69.000
 62  2.48112        67.000
 63  2.49267        65.000
 64  2.50455        63.000
 65  2.51680        61.000
 66  2.52942        59.000
 67  2.54246        57.000
 68  2.55458        55.200
 69  2.56706        53.400
 70  2.57996        51.600
 71  2.59328        49.800
 72  2.60707        48.000
 73  2.62135        46.200
 74  2.63451        44.600
 75  2.64810        43.000
 76  2.66219        41.400
 77  2.67773        39.700
 78  2.69293        38.100
 79  2.70775        36.600
 80  2.72314        35.100
 81  2.73917        33.600
 82  2.75475        32.200
 83  2.77098        30.800
 84  2.78792        29.400
 85  2.80436        28.100
 86  2.82153        26.800
 87  2.83952        25.500
 88  2.85695        24.300
 89  2.87522        23.100
 90  2.89446        21.900
 91  2.91306        20.800
 92  2.92817        19.950
 93  2.94015        19.300
 94  2.95255        18.650
 95  2.96541        18.000
 96  2.97878        17.350
 97  2.99162        16.750
 98  3.00496        16.150
 99  3.01886        15.550
100  3.03215        15.000
101  3.04599        14.450
102  3.06045        13.900
103  3.07558        13.350
104  3.09001        12.850
105  3.10509        12.350
106  3.12095        11.850
107  3.13594        11.400
108  3.15167        10.950
109  3.16823        10.500
110  3.18571        10.050
111  3.20422         9.600
112  3.22167         9.200
113  3.24010         8.800
114  3.25969         8.400
115  3.28057         8.000
116  3.30007         7.650
117  3.32077         7.300
118  3.34292         6.950
119  3.36665         6.600
120  3.39224         6.250
121  3.41995         5.900
122  3.44566         5.600
123  3.47340         5.300
124  3.50353         5.000
125  3.53419         4.720
126  3.56516         4.460
127  3.59891         4.200
128  3.63017         3.980
129  3.65767         3.800
130  3.68554         3.630
131  3.71368         3.470
132  3.74388         3.310
133  3.77646         3.150
134  3.80949         3.000
135  3.84519         2.850
136  3.88403         2.700
137  3.92355         2.560
138  3.96659         2.420
139  4.01036         2.290
140  4.05815         2.160
141  4.11079         2.030
142  4.16452         1.910
143  4.21884         1.800
144  4.27890         1.690
145  4.34005         1.590
146  4.40827         1.490
147  4.47672         1.400
