Sensor Model:   CX-1050-CU-1.4L
Serial Number:  X63165
Data Format:    4      (Log Ohms/Kelvin)
SetPoint Limit: 325.0      (Kelvin)
Temperature coefficient:  1 (Negative)
Number of Breakpoints:   148

No.   Units      Temperature (K)

  1  1.87354       325.000
  2  1.88101       319.000
  3  1.88801       313.500
  4  1.89515       308.000
  5  1.90245       302.500
  6  1.90990       297.000
  7  1.91752       291.500
  8  1.92531       286.000
  9  1.93328       280.500
 10  1.94142       275.000
 11  1.94976       269.500
 12  1.95829       264.000
 13  1.96703       258.500
 14  1.97597       253.000
 15  1.98513       247.500
 16  1.99366       242.500
 17  2.00237       237.500
 18  2.01128       232.500
 19  2.02040       227.500
 20  2.02973       222.500
 21  2.03929       217.500
 22  2.04907       212.500
 23  2.05909       207.500
 24  2.06936       202.500
 25  2.07989       197.500
 26  2.09069       192.500
 27  2.10177       187.500
 28  2.11314       182.500
 29  2.12365       178.000
 30  2.13441       173.500
 31  2.14544       169.000
 32  2.15676       164.500
 33  2.16838       160.000
 34  2.18030       155.500
 35  2.19256       151.000
 36  2.20516       146.500
 37  2.21812       142.000
 38  2.23147       137.500
 39  2.24368       133.500
 40  2.25622       129.500
 41  2.26912       125.500
 42  2.28240       121.500
 43  2.29608       117.500
 44  2.31019       113.500
 45  2.32476       109.500
 46  2.33982       105.500
 47  2.35345       102.000
 48  2.36346        99.500
 49  2.37368        97.000
 50  2.38416        94.500
 51  2.39489        92.000
 52  2.40590        89.500
 53  2.41719        87.000
 54  2.42879        84.500
 55  2.44070        82.000
 56  2.45295        79.500
 57  2.46557        77.000
 58  2.47596        75.000
 59  2.48659        73.000
 60  2.49751        71.000
 61  2.50871        69.000
 62  2.52023        67.000
 63  2.53208        65.000
 64  2.54428        63.000
 65  2.55684        61.000
 66  2.56980        59.000
 67  2.58319        57.000
 68  2.59564        55.200
 69  2.60846        53.400
 70  2.62171        51.600
 71  2.63539        49.800
 72  2.64956        48.000
 73  2.66424        46.200
 74  2.67776        44.600
 75  2.69174        43.000
 76  2.70622        41.400
 77  2.72219        39.700
 78  2.73782        38.100
 79  2.75307        36.600
 80  2.76890        35.100
 81  2.78539        33.600
 82  2.80143        32.200
 83  2.81813        30.800
 84  2.83557        29.400
 85  2.85251        28.100
 86  2.87020        26.800
 87  2.88875        25.500
 88  2.90672        24.300
 89  2.92557        23.100
 90  2.94543        21.900
 91  2.96465        20.800
 92  2.98025        19.950
 93  2.99263        19.300
 94  3.00544        18.650
 95  3.01874        18.000
 96  3.03255        17.350
 97  3.04583        16.750
 98  3.05962        16.150
 99  3.07400        15.550
100  3.08774        15.000
101  3.10205        14.450
102  3.11702        13.900
103  3.13125        13.400
104  3.14610        12.900
105  3.16167        12.400
106  3.17802        11.900
107  3.19348        11.450
108  3.20970        11.000
109  3.22678        10.550
110  3.24481        10.100
111  3.26390         9.650
112  3.28189         9.250
113  3.30090         8.850
114  3.32111         8.450
115  3.34264         8.050
116  3.36274         7.700
117  3.38409         7.350
118  3.40692         7.000
119  3.43139         6.650
120  3.45776         6.300
121  3.48717         5.940
122  3.51372         5.640
123  3.54238         5.340
124  3.57351         5.040
125  3.60517         4.760
126  3.63715         4.500
127  3.67199         4.240
128  3.70423         4.020
129  3.73263         3.840
130  3.76137         3.670
131  3.79223         3.500
132  3.82353         3.340
133  3.85723         3.180
134  3.89142         3.030
135  3.92833         2.880
136  3.96849         2.730
137  4.00933         2.590
138  4.05380         2.450
139  4.09900         2.320
140  4.14832         2.190
141  4.20260         2.060
142  4.25795         1.940
143  4.31906         1.820
144  4.38150         1.710
145  4.44472         1.610
146  4.51544         1.510
147  4.59456         1.410
148  4.60362         1.400
