Sensor Model:   CX-1050-CU-1.4L
Serial Number:  X63166
Data Format:    4      (Log Ohms/Kelvin)
SetPoint Limit: 325.0      (Kelvin)
Temperature coefficient:  1 (Negative)
Number of Breakpoints:   147

No.   Units      Temperature (K)

  1  1.81987       325.000
  2  1.82699       319.000
  3  1.83365       313.500
  4  1.84045       308.000
  5  1.84740       302.500
  6  1.85450       297.000
  7  1.86175       291.500
  8  1.86916       286.000
  9  1.87674       280.500
 10  1.88448       275.000
 11  1.89240       269.500
 12  1.90050       264.000
 13  1.90880       258.500
 14  1.91728       253.000
 15  1.92597       247.500
 16  1.93486       242.000
 17  1.94314       237.000
 18  1.95160       232.000
 19  1.96025       227.000
 20  1.96910       222.000
 21  1.97816       217.000
 22  1.98743       212.000
 23  1.99693       207.000
 24  2.00665       202.000
 25  2.01662       197.000
 26  2.02684       192.000
 27  2.03732       187.000
 28  2.04808       182.000
 29  2.05912       177.000
 30  2.06931       172.500
 31  2.07976       168.000
 32  2.09047       163.500
 33  2.10145       159.000
 34  2.11273       154.500
 35  2.12431       150.000
 36  2.13621       145.500
 37  2.14845       141.000
 38  2.16105       136.500
 39  2.17257       132.500
 40  2.18440       128.500
 41  2.19656       124.500
 42  2.20908       120.500
 43  2.22197       116.500
 44  2.23527       112.500
 45  2.24899       108.500
 46  2.26317       104.500
 47  2.27600       101.000
 48  2.28541        98.500
 49  2.29503        96.000
 50  2.30487        93.500
 51  2.31496        91.000
 52  2.32530        88.500
 53  2.33591        86.000
 54  2.34680        83.500
 55  2.35799        81.000
 56  2.36950        78.500
 57  2.37897        76.500
 58  2.38865        74.500
 59  2.39859        72.500
 60  2.40877        70.500
 61  2.41923        68.500
 62  2.42998        66.500
 63  2.44103        64.500
 64  2.45241        62.500
 65  2.46413        60.500
 66  2.47560        58.600
 67  2.48680        56.800
 68  2.49833        55.000
 69  2.51022        53.200
 70  2.52249        51.400
 71  2.53516        49.600
 72  2.54828        47.800
 73  2.56185        46.000
 74  2.57594        44.200
 75  2.58892        42.600
 76  2.60235        41.000
 77  2.61717        39.300
 78  2.63167        37.700
 79  2.64580        36.200
 80  2.66047        34.700
 81  2.67574        33.200
 82  2.69060        31.800
 83  2.70607        30.400
 84  2.72222        29.000
 85  2.73789        27.700
 86  2.75426        26.400
 87  2.77142        25.100
 88  2.78804        23.900
 89  2.80547        22.700
 90  2.82384        21.500
 91  2.84161        20.400
 92  2.85517        19.600
 93  2.86659        18.950
 94  2.87842        18.300
 95  2.89069        17.650
 96  2.90247        17.050
 97  2.91468        16.450
 98  2.92740        15.850
 99  2.93953        15.300
100  2.95216        14.750
101  2.96533        14.200
102  2.97907        13.650
103  2.99215        13.150
104  3.00581        12.650
105  3.02015        12.150
106  3.03521        11.650
107  3.04947        11.200
108  3.06443        10.750
109  3.08019        10.300
110  3.09684         9.850
111  3.11250         9.450
112  3.12900         9.050
113  3.14648         8.650
114  3.16506         8.250
115  3.18488         7.850
116  3.20340         7.500
117  3.22309         7.150
118  3.24416         6.800
119  3.26678         6.450
120  3.29120         6.100
121  3.31533         5.780
122  3.33978         5.480
123  3.36618         5.180
124  3.39296         4.900
125  3.42201         4.620
126  3.45380         4.340
127  3.48621         4.080
128  3.51339         3.880
129  3.53812         3.710
130  3.56460         3.540
131  3.59309         3.370
132  3.62202         3.210
133  3.65124         3.060
134  3.68274         2.910
135  3.71691         2.760
136  3.75161         2.620
137  3.78934         2.480
138  3.82766         2.350
139  3.86945         2.220
140  3.91541         2.090
141  3.96214         1.970
142  4.01347         1.850
143  4.07040         1.730
144  4.12854         1.620
145  4.18727         1.520
146  4.24680         1.430
147  4.26912         1.400
