Sensor Model:   CX-1050-CU-1.4L
Serial Number:  X63163
Data Format:    4      (Log Ohms/Kelvin)
SetPoint Limit: 325.0      (Kelvin)
Temperature coefficient:  1 (Negative)
Number of Breakpoints:   145

No.   Units      Temperature (K)

  1  1.73718       325.000
  2  1.74354       319.000
  3  1.74949       313.500
  4  1.75557       308.000
  5  1.76178       302.500
  6  1.76812       297.000
  7  1.77461       291.500
  8  1.78123       286.000
  9  1.78801       280.500
 10  1.79494       275.000
 11  1.80202       269.500
 12  1.80927       264.000
 13  1.81668       258.500
 14  1.82428       253.000
 15  1.83205       247.500
 16  1.84001       242.000
 17  1.84742       237.000
 18  1.85498       232.000
 19  1.86273       227.000
 20  1.87064       222.000
 21  1.87875       217.000
 22  1.88704       212.000
 23  1.89553       207.000
 24  1.90423       202.000
 25  1.91314       197.000
 26  1.92227       192.000
 27  1.93163       187.000
 28  1.94124       182.000
 29  1.95109       177.000
 30  1.96122       172.000
 31  1.97057       167.500
 32  1.98014       163.000
 33  1.98996       158.500
 34  2.00004       154.000
 35  2.01039       149.500
 36  2.02101       145.000
 37  2.03194       140.500
 38  2.04318       136.000
 39  2.05475       131.500
 40  2.06534       127.500
 41  2.07621       123.500
 42  2.08739       119.500
 43  2.09891       115.500
 44  2.11078       111.500
 45  2.12303       107.500
 46  2.13568       103.500
 47  2.14547       100.500
 48  2.15382        98.000
 49  2.16235        95.500
 50  2.17108        93.000
 51  2.18002        90.500
 52  2.18919        88.000
 53  2.19859        85.500
 54  2.20824        83.000
 55  2.21815        80.500
 56  2.22834        78.000
 57  2.23883        75.500
 58  2.24746        73.500
 59  2.25630        71.500
 60  2.26536        69.500
 61  2.27466        67.500
 62  2.28422        65.500
 63  2.29405        63.500
 64  2.30417        61.500
 65  2.31512        59.400
 66  2.32588        57.400
 67  2.33699        55.400
 68  2.34732        53.600
 69  2.35796        51.800
 70  2.36895        50.000
 71  2.38030        48.200
 72  2.39205        46.400
 73  2.40422        44.600
 74  2.41684        42.800
 75  2.42849        41.200
 76  2.44129        39.500
 77  2.45382        37.900
 78  2.46683        36.300
 79  2.47951        34.800
 80  2.49268        33.300
 81  2.50640        31.800
 82  2.51975        30.400
 83  2.53366        29.000
 84  2.54819        27.600
 85  2.56231        26.300
 86  2.57708        25.000
 87  2.59258        23.700
 88  2.60763        22.500
 89  2.62211        21.400
 90  2.63732        20.300
 91  2.64894        19.500
 92  2.65871        18.850
 93  2.66882        18.200
 94  2.67931        17.550
 95  2.69020        16.900
 96  2.70066        16.300
 97  2.71153        15.700
 98  2.72285        15.100
 99  2.73368        14.550
100  2.74495        14.000
101  2.75673        13.450
102  2.76794        12.950
103  2.77965        12.450
104  2.79192        11.950
105  2.80482        11.450
106  2.81702        11.000
107  2.82982        10.550
108  2.84331        10.100
109  2.85756         9.650
110  2.87096         9.250
111  2.88509         8.850
112  2.90006         8.450
113  2.91597         8.050
114  2.93293         7.650
115  2.94880         7.300
116  2.96568         6.950
117  2.98374         6.600
118  3.00315         6.250
119  3.02411         5.900
120  3.04482         5.580
121  3.06583         5.280
122  3.08853         4.980
123  3.11159         4.700
124  3.13663         4.420
125  3.16206         4.160
126  3.18440         3.950
127  3.20487         3.770
128  3.22559         3.600
129  3.24777         3.430
130  3.27022         3.270
131  3.29434         3.110
132  3.32040         2.950
133  3.34689         2.800
134  3.37364         2.660
135  3.40262         2.520
136  3.43421         2.380
137  3.46628         2.250
138  3.50129         2.120
139  3.53979         1.990
140  3.57896         1.870
141  3.62212         1.750
142  3.66606         1.640
143  3.71486         1.530
144  3.76517         1.430
145  3.78223         1.400
