Sensor Model:   CX-1010-CD-BF0.1
Serial Number:  X63592
Data Format:    4      (Log Ohms/Kelvin)
SetPoint Limit: 325.0      (Kelvin)
Temperature coefficient:  1 (Negative)
Number of Breakpoints:   180

No.            Units        Temperature (K)
 
1	1.49533	308
2	1.50029	302
3	1.50449	297
4	1.50919	291.5
5	1.51397	286
6	1.51884	280.5
7	1.5238	275
8	1.52885	269.5
9	1.534	264
10	1.53925	258.5
11	1.5446	253
12	1.55005	247.5
13	1.55562	242
14	1.5613	236.5
15	1.56711	231
16	1.57304	225.5
17	1.5791	220
18	1.58473	215
19	1.59047	210
20	1.59634	205
21	1.60234	200
22	1.60847	195
23	1.61475	190
24	1.62117	185
25	1.62775	180
26	1.63448	175
27	1.64139	170
28	1.64848	165
29	1.65575	160
30	1.66323	155
31	1.67092	150
32	1.67803	145.5
33	1.68533	141
34	1.69284	136.5
35	1.70056	132
36	1.7085	127.5
37	1.71669	123
38	1.72514	118.5
39	1.73387	114
40	1.74187	110
41	1.75013	106
42	1.75865	102
43	1.76523	99
44	1.77084	96.5
45	1.77657	94
46	1.78244	91.5
47	1.78844	89
48	1.79458	86.5
49	1.80087	84
50	1.80732	81.5
51	1.81394	79
52	1.82074	76.5
53	1.82773	74
54	1.83491	71.5
55	1.84231	69
56	1.8484	67
57	1.85463	65
58	1.86103	63
59	1.86761	61
60	1.87436	59
61	1.88131	57
62	1.88847	55
63	1.89585	53
64	1.90347	51
65	1.91135	49
66	1.91867	47.2
67	1.92624	45.4
68	1.93406	43.6
69	1.94217	41.8
70	1.95106	39.9
71	1.95932	38.2
72	1.96791	36.5
73	1.97631	34.9
74	1.98506	33.3
75	1.99419	31.7
76	2.00312	30.2
77	2.01245	28.7
78	2.02223	27.2
79	2.0318	25.8
80	2.04112	24.5
81	2.05091	23.2
82	2.06121	21.9
83	2.07124	20.7
84	2.07913	19.8
85	2.0855	19.1
86	2.0921	18.4
87	2.09895	17.7
88	2.10554	17.05
89	2.11239	16.4
90	2.11951	15.75
91	2.12634	15.15
92	2.13345	14.55
93	2.14086	13.95
94	2.14795	13.4
95	2.15534	12.85
96	2.16306	12.3
97	2.1704	11.8
98	2.17808	11.3
99	2.18613	10.8
100	2.19459	10.3
101	2.2026	9.85
102	2.21102	9.4
103	2.21989	8.95
104	2.22821	8.55
105	2.23699	8.15
106	2.24627	7.75
107	2.25612	7.35
108	2.26662	6.95
109	2.27641	6.6
110	2.28684	6.25
111	2.29867	5.88
112	2.31037	5.54
113	2.32222	5.22
114	2.33419	4.92
115	2.34711	4.62
116	2.36116	4.32
117	2.37546	4.04
118	2.38706	3.83
119	2.39769	3.65
120	2.40904	3.47
121	2.42121	3.29
122	2.43356	3.12
123	2.44685	2.95
124	2.46035	2.79
125	2.47496	2.63
126	2.48982	2.48
127	2.50599	2.33
128	2.52245	2.19
129	2.54047	2.05
130	2.55885	1.92
131	2.57908	1.79
132	2.59973	1.67
133	2.62063	1.56
134	2.64378	1.45
135	2.66964	1.34
136	2.696	1.24
137	2.71336	1.18
138	2.72725	1.135
139	2.74198	1.09
140	2.75764	1.045
141	2.77433	1
142	2.79012	0.96
143	2.80693	0.92
144	2.82485	0.88
145	2.84402	0.84
146	2.86461	0.8
147	2.88392	0.765
148	2.90459	0.73
149	2.9268	0.695
150	2.95074	0.66
151	2.97666	0.625
152	3.00067	0.595
153	3.02657	0.565
154	3.0546	0.535
155	3.0851	0.505
156	3.11038	0.482
157	3.13388	0.462
158	3.15896	0.442
159	3.1858	0.422
160	3.21164	0.404
161	3.24891	0.38
162	3.28277	0.36
163	3.31957	0.34
164	3.35977	0.32
165	3.40392	0.3
166	3.45271	0.28
167	3.50701	0.26
168	3.56795	0.24
169	3.63699	0.22
170	3.71609	0.2
171	3.76946	0.188
172	3.82817	0.176
173	3.89316	0.164
174	3.96563	0.152
175	4.04715	0.14
176	4.19995	0.121
177	4.26553	0.114
178	4.32668	0.108
179	4.4047	0.101
180	4.4165	0.1
