Sensor Model:   CX-1010-SD-0.3L
Serial Number:  X63710
Data Format:    4      (Log Ohms/Kelvin)
SetPoint Limit: 325.0      (Kelvin)
Temperature coefficient:  1 (Negative)
Number of Breakpoints:   172

No.   Units      Temperature (K)

  1  1.48304       325.000
  2  1.48744       319.000
  3  1.49156       313.500
  4  1.49576       308.000
  5  1.50006       302.500
  6  1.50445       297.000
  7  1.50893       291.500
  8  1.51351       286.000
  9  1.51819       280.500
 10  1.52297       275.000
 11  1.52787       269.500
 12  1.53287       264.000
 13  1.53799       258.500
 14  1.54323       253.000
 15  1.54858       247.500
 16  1.55407       242.000
 17  1.55968       236.500
 18  1.56543       231.000
 19  1.57132       225.500
 20  1.57680       220.500
 21  1.58239       215.500
 22  1.58812       210.500
 23  1.59397       205.500
 24  1.59996       200.500
 25  1.60609       195.500
 26  1.61237       190.500
 27  1.61880       185.500
 28  1.62538       180.500
 29  1.63212       175.500
 30  1.63904       170.500
 31  1.64613       165.500
 32  1.65341       160.500
 33  1.66088       155.500
 34  1.66778       151.000
 35  1.67485       146.500
 36  1.68211       142.000
 37  1.68956       137.500
 38  1.69720       133.000
 39  1.70506       128.500
 40  1.71315       124.000
 41  1.72148       119.500
 42  1.72910       115.500
 43  1.73694       111.500
 44  1.74500       107.500
 45  1.75332       103.500
 46  1.75974       100.500
 47  1.76520        98.000
 48  1.77078        95.500
 49  1.77649        93.000
 50  1.78233        90.500
 51  1.78830        88.000
 52  1.79441        85.500
 53  1.80068        83.000
 54  1.80710        80.500
 55  1.81370        78.000
 56  1.82049        75.500
 57  1.82747        73.000
 58  1.83321        71.000
 59  1.83908        69.000
 60  1.84511        67.000
 61  1.85130        65.000
 62  1.85765        63.000
 63  1.86419        61.000
 64  1.87091        59.000
 65  1.87784        57.000
 66  1.88498        55.000
 67  1.89236        53.000
 68  1.89921        51.200
 69  1.90627        49.400
 70  1.91357        47.600
 71  1.92110        45.800
 72  1.92889        44.000
 73  1.93696        42.200
 74  1.94533        40.400
 75  1.95352        38.700
 76  1.96152        37.100
 77  1.96981        35.500
 78  1.97842        33.900
 79  1.98680        32.400
 80  1.99551        30.900
 81  2.00458        29.400
 82  2.01341        28.000
 83  2.02260        26.600
 84  2.03153        25.300
 85  2.04084        24.000
 86  2.05062        22.700
 87  2.06009        21.500
 88  2.07005        20.300
 89  2.07747        19.450
 90  2.08378        18.750
 91  2.09032        18.050
 92  2.09662        17.400
 93  2.10314        16.750
 94  2.10992        16.100
 95  2.11644        15.500
 96  2.12320        14.900
 97  2.13026        14.300
 98  2.13700        13.750
 99  2.14404        13.200
100  2.15139        12.650
101  2.15839        12.150
102  2.16571        11.650
103  2.17338        11.150
104  2.18145        10.650
105  2.18910        10.200
106  2.19714         9.750
107  2.20562         9.300
108  2.21459         8.850
109  2.22305         8.450
110  2.23198         8.050
111  2.24147         7.650
112  2.25158         7.250
113  2.26102         6.900
114  2.27104         6.550
115  2.28175         6.200
116  2.29291         5.860
117  2.30418         5.540
118  2.31629         5.220
119  2.32855         4.920
120  2.34178         4.620
121  2.35519         4.340
122  2.36974         4.060
123  2.38162         3.850
124  2.39244         3.670
125  2.40399         3.490
126  2.41635         3.310
127  2.42887         3.140
128  2.44150         2.980
129  2.45509         2.820
130  2.46972         2.660
131  2.48456         2.510
132  2.50061         2.360
133  2.51691         2.220
134  2.53464         2.080
135  2.55267         1.950
136  2.57237         1.820
137  2.59243         1.700
138  2.61450         1.580
139  2.63697         1.470
140  2.66186         1.360
141  2.68978         1.250
142  2.70965         1.180
143  2.72319         1.135
144  2.73749         1.090
145  2.75265         1.045
146  2.76693         1.005
147  2.78200         0.965
148  2.79797         0.925
149  2.81493         0.885
150  2.83299         0.845
151  2.85228         0.805
152  2.87033         0.770
153  2.88951         0.735
154  2.91006         0.700
155  2.93212         0.665
156  2.95248         0.635
157  2.97425         0.605
158  2.99772         0.575
159  3.02314         0.545
160  3.05084         0.515
161  3.07393         0.492
162  3.09532         0.472
163  3.11815         0.452
164  3.14252         0.432
165  3.16854         0.412
166  3.19352         0.394
167  3.22003         0.376
168  3.24829         0.358
169  3.27515         0.342
170  3.30393         0.326
171  3.33131         0.312
172  3.35705         0.300
