Sensor Model:   CX-1050-CU-1.4L
Serial Number:  X63886
Data Format:    4      (Log Ohms/Kelvin)
SetPoint Limit: 325.0      (Kelvin)
Temperature coefficient:  1 (Negative)
Number of Breakpoints:   145

No.   Units      Temperature (K)

  1  1.76291       325.000
  2  1.76953       319.000
  3  1.77571       313.500
  4  1.78203       308.000
  5  1.78849       302.500
  6  1.79509       297.000
  7  1.80182       291.500
  8  1.80871       286.000
  9  1.81575       280.500
 10  1.82295       275.000
 11  1.83032       269.500
 12  1.83785       264.000
 13  1.84556       258.500
 14  1.85345       253.000
 15  1.86153       247.500
 16  1.86980       242.000
 17  1.87750       237.000
 18  1.88537       232.000
 19  1.89341       227.000
 20  1.90164       222.000
 21  1.91007       217.000
 22  1.91869       212.000
 23  1.92751       207.000
 24  1.93655       202.000
 25  1.94582       197.000
 26  1.95531       192.000
 27  1.96505       187.000
 28  1.97504       182.000
 29  1.98529       177.000
 30  1.99476       172.500
 31  2.00445       168.000
 32  2.01439       163.500
 33  2.02459       159.000
 34  2.03505       154.500
 35  2.04579       150.000
 36  2.05683       145.500
 37  2.06817       141.000
 38  2.07984       136.500
 39  2.09187       132.000
 40  2.10287       128.000
 41  2.11416       124.000
 42  2.12579       120.000
 43  2.13777       116.000
 44  2.15011       112.000
 45  2.16284       108.000
 46  2.17600       104.000
 47  2.18790       100.500
 48  2.19663        98.000
 49  2.20555        95.500
 50  2.21468        93.000
 51  2.22403        90.500
 52  2.23361        88.000
 53  2.24344        85.500
 54  2.25354        83.000
 55  2.26391        80.500
 56  2.27458        78.000
 57  2.28556        75.500
 58  2.29460        73.500
 59  2.30385        71.500
 60  2.31335        69.500
 61  2.32310        67.500
 62  2.33312        65.500
 63  2.34343        63.500
 64  2.35404        61.500
 65  2.36553        59.400
 66  2.37682        57.400
 67  2.38849        55.400
 68  2.39934        53.600
 69  2.41051        51.800
 70  2.42206        50.000
 71  2.43399        48.200
 72  2.44633        46.400
 73  2.45913        44.600
 74  2.47092        43.000
 75  2.48310        41.400
 76  2.49653        39.700
 77  2.50966        38.100
 78  2.52330        36.500
 79  2.53661        35.000
 80  2.55043        33.500
 81  2.56483        32.000
 82  2.57885        30.600
 83  2.59345        29.200
 84  2.60872        27.800
 85  2.62356        26.500
 86  2.63908        25.200
 87  2.65537        23.900
 88  2.67119        22.700
 89  2.68781        21.500
 90  2.70389        20.400
 91  2.71615        19.600
 92  2.72646        18.950
 93  2.73714        18.300
 94  2.74821        17.650
 95  2.75972        17.000
 96  2.77077        16.400
 97  2.78226        15.800
 98  2.79423        15.200
 99  2.80569        14.650
100  2.81762        14.100
101  2.83006        13.550
102  2.84190        13.050
103  2.85428        12.550
104  2.86725        12.050
105  2.88088        11.550
106  2.89377        11.100
107  2.90729        10.650
108  2.92154        10.200
109  2.93658         9.750
110  2.95073         9.350
111  2.96563         8.950
112  2.98143         8.550
113  2.99821         8.150
114  3.01609         7.750
115  3.03281         7.400
116  3.05059         7.050
117  3.06961         6.700
118  3.09003         6.350
119  3.11338         5.980
120  3.13528         5.660
121  3.15745         5.360
122  3.18142         5.060
123  3.20573         4.780
124  3.23213         4.500
125  3.25892         4.240
126  3.28355         4.020
127  3.30521         3.840
128  3.32704         3.670
129  3.35042         3.500
130  3.37556         3.330
131  3.40107         3.170
132  3.42681         3.020
133  3.45456         2.870
134  3.48465         2.720
135  3.51518         2.580
136  3.54837         2.440
137  3.58472         2.300
138  3.62179         2.170
139  3.66243         2.040
140  3.70380         1.920
141  3.74927         1.800
142  3.79977         1.680
143  3.85146         1.570
144  3.90399         1.470
145  3.94546         1.400
