Sensor Model:   CX-1050-CU-1.4L
Serial Number:  X63879
Data Format:    4      (Log Ohms/Kelvin)
SetPoint Limit: 325.0      (Kelvin)
Temperature coefficient:  1 (Negative)
Number of Breakpoints:   147

No.   Units      Temperature (K)

  1  1.85551       325.000
  2  1.86296       319.000
  3  1.86994       313.500
  4  1.87706       308.000
  5  1.88434       302.500
  6  1.89177       297.000
  7  1.89937       291.500
  8  1.90713       286.000
  9  1.91507       280.500
 10  1.92318       275.000
 11  1.93148       269.500
 12  1.93997       264.000
 13  1.94865       258.500
 14  1.95754       253.000
 15  1.96664       247.500
 16  1.97511       242.500
 17  1.98376       237.500
 18  1.99261       232.500
 19  2.00167       227.500
 20  2.01093       222.500
 21  2.02041       217.500
 22  2.03012       212.500
 23  2.04006       207.500
 24  2.05025       202.500
 25  2.06069       197.500
 26  2.07140       192.500
 27  2.08238       187.500
 28  2.09365       182.500
 29  2.10523       177.500
 30  2.11592       173.000
 31  2.12687       168.500
 32  2.13811       164.000
 33  2.14963       159.500
 34  2.16146       155.000
 35  2.17361       150.500
 36  2.18610       146.000
 37  2.19895       141.500
 38  2.21217       137.000
 39  2.22427       133.000
 40  2.23670       129.000
 41  2.24948       125.000
 42  2.26264       121.000
 43  2.27620       117.000
 44  2.29019       113.000
 45  2.30463       109.000
 46  2.31956       105.000
 47  2.33306       101.500
 48  2.34298        99.000
 49  2.35310        96.500
 50  2.36347        94.000
 51  2.37409        91.500
 52  2.38498        89.000
 53  2.39616        86.500
 54  2.40763        84.000
 55  2.41943        81.500
 56  2.43156        79.000
 57  2.44405        76.500
 58  2.45433        74.500
 59  2.46486        72.500
 60  2.47567        70.500
 61  2.48677        68.500
 62  2.49818        66.500
 63  2.50991        64.500
 64  2.52200        62.500
 65  2.53445        60.500
 66  2.54665        58.600
 67  2.55856        56.800
 68  2.57082        55.000
 69  2.58347        53.200
 70  2.59653        51.400
 71  2.61003        49.600
 72  2.62400        47.800
 73  2.63847        46.000
 74  2.65180        44.400
 75  2.66557        42.800
 76  2.67985        41.200
 77  2.69559        39.500
 78  2.71100        37.900
 79  2.72602        36.400
 80  2.74162        34.900
 81  2.75787        33.400
 82  2.77368        32.000
 83  2.79015        30.600
 84  2.80735        29.200
 85  2.82405        27.900
 86  2.84150        26.600
 87  2.85980        25.300
 88  2.87753        24.100
 89  2.89613        22.900
 90  2.91572        21.700
 91  2.93469        20.600
 92  2.95009        19.750
 93  2.96231        19.100
 94  2.97496        18.450
 95  2.98810        17.800
 96  3.00070        17.200
 97  3.01377        16.600
 98  3.02737        16.000
 99  3.04156        15.400
100  3.05513        14.850
101  3.06928        14.300
102  3.08406        13.750
103  3.09812        13.250
104  3.11281        12.750
105  3.12821        12.250
106  3.14439        11.750
107  3.15971        11.300
108  3.17578        10.850
109  3.19272        10.400
110  3.21061         9.950
111  3.22743         9.550
112  3.24517         9.150
113  3.26396         8.750
114  3.28392         8.350
115  3.30521         7.950
116  3.32510         7.600
117  3.34625         7.250
118  3.36888         6.900
119  3.39315         6.550
120  3.41934         6.200
121  3.44688         5.860
122  3.47319         5.560
123  3.50159         5.260
124  3.53037         4.980
125  3.56158         4.700
126  3.59570         4.420
127  3.63047         4.160
128  3.66113         3.950
129  3.68774         3.780
130  3.71623         3.610
131  3.74688         3.440
132  3.77799         3.280
133  3.80938         3.130
134  3.84321         2.980
135  3.87987         2.830
136  3.91703         2.690
137  3.95735         2.550
138  4.00140         2.410
139  4.04620         2.280
140  4.09519         2.150
141  4.14493         2.030
142  4.19952         1.910
143  4.26008         1.790
144  4.32196         1.680
145  4.38475         1.580
146  4.45485         1.480
147  4.51730         1.400
