Sensor Model:   CX-1050-CU-1.4L
Serial Number:  X63880
Data Format:    4      (Log Ohms/Kelvin)
SetPoint Limit: 325.0      (Kelvin)
Temperature coefficient:  1 (Negative)
Number of Breakpoints:   145

No.   Units      Temperature (K)

  1  1.72607       325.000
  2  1.73235       319.000
  3  1.73824       313.500
  4  1.74426       308.000
  5  1.75041       302.500
  6  1.75669       297.000
  7  1.76311       291.500
  8  1.76968       286.000
  9  1.77639       280.500
 10  1.78325       275.000
 11  1.79026       269.500
 12  1.79744       264.000
 13  1.80478       258.500
 14  1.81229       253.000
 15  1.81998       247.500
 16  1.82785       242.000
 17  1.83591       236.500
 18  1.84341       231.500
 19  1.85108       226.500
 20  1.85893       221.500
 21  1.86695       216.500
 22  1.87516       211.500
 23  1.88357       206.500
 24  1.89218       201.500
 25  1.90101       196.500
 26  1.91005       191.500
 27  1.91932       186.500
 28  1.92883       181.500
 29  1.93858       176.500
 30  1.94860       171.500
 31  1.95785       167.000
 32  1.96733       162.500
 33  1.97704       158.000
 34  1.98701       153.500
 35  1.99724       149.000
 36  2.00775       144.500
 37  2.01855       140.000
 38  2.02967       135.500
 39  2.04111       131.000
 40  2.05158       127.000
 41  2.06233       123.000
 42  2.07340       119.000
 43  2.08479       115.000
 44  2.09654       111.000
 45  2.10865       107.000
 46  2.12117       103.000
 47  2.13087       100.000
 48  2.13912        97.500
 49  2.14756        95.000
 50  2.15620        92.500
 51  2.16505        90.000
 52  2.17412        87.500
 53  2.18341        85.000
 54  2.19296        82.500
 55  2.20277        80.000
 56  2.21286        77.500
 57  2.22324        75.000
 58  2.23178        73.000
 59  2.24052        71.000
 60  2.24950        69.000
 61  2.25871        67.000
 62  2.26818        65.000
 63  2.27792        63.000
 64  2.28795        61.000
 65  2.29827        59.000
 66  2.30893        57.000
 67  2.31993        55.000
 68  2.33015        53.200
 69  2.34069        51.400
 70  2.35157        49.600
 71  2.36281        47.800
 72  2.37444        46.000
 73  2.38650        44.200
 74  2.39760        42.600
 75  2.40907        41.000
 76  2.42171        39.300
 77  2.43407        37.700
 78  2.44691        36.100
 79  2.45943        34.600
 80  2.47243        33.100
 81  2.48597        31.600
 82  2.49916        30.200
 83  2.51289        28.800
 84  2.52724        27.400
 85  2.54119        26.100
 86  2.55578        24.800
 87  2.56991        23.600
 88  2.58470        22.400
 89  2.60028        21.200
 90  2.61534        20.100
 91  2.61965        19.800
 92  2.62683        19.300
 93  2.63650        18.650
 94  2.64652        18.000
 95  2.65690        17.350
 96  2.66770        16.700
 97  2.67808        16.100
 98  2.68886        15.500
 99  2.70010        14.900
100  2.71085        14.350
101  2.72206        13.800
102  2.73379        13.250
103  2.74495        12.750
104  2.75662        12.250
105  2.76885        11.750
106  2.78172        11.250
107  2.79391        10.800
108  2.80671        10.350
109  2.82021         9.900
110  2.83449         9.450
111  2.84794         9.050
112  2.86212         8.650
113  2.87719         8.250
114  2.89321         7.850
115  2.90816         7.500
116  2.92403         7.150
117  2.94097         6.800
118  2.95912         6.450
119  2.97866         6.100
120  2.99793         5.780
121  3.01871         5.460
122  3.03981         5.160
123  3.06112         4.880
124  3.08419         4.600
125  3.10935         4.320
126  3.13494         4.060
127  3.15634         3.860
128  3.17694         3.680
129  3.19781         3.510
130  3.22020         3.340
131  3.24289         3.180
132  3.26732         3.020
133  3.29210         2.870
134  3.31887         2.720
135  3.34603         2.580
136  3.37549         2.440
137  3.40771         2.300
138  3.44051         2.170
139  3.47640         2.040
140  3.51600         1.910
141  3.55645         1.790
142  3.59736         1.680
143  3.64264         1.570
144  3.68875         1.470
145  3.72497         1.400
