Sensor Model:   CX-1050-CU-1.4L
Serial Number:  X63881
Data Format:    4      (Log Ohms/Kelvin)
SetPoint Limit: 325.0      (Kelvin)
Temperature coefficient:  1 (Negative)
Number of Breakpoints:   145

No.   Units      Temperature (K)

  1  1.75730       325.000
  2  1.76379       319.000
  3  1.76987       313.500
  4  1.77607       308.000
  5  1.78241       302.500
  6  1.78889       297.000
  7  1.79550       291.500
  8  1.80226       286.000
  9  1.80918       280.500
 10  1.81625       275.000
 11  1.82348       269.500
 12  1.83087       264.000
 13  1.83844       258.500
 14  1.84619       253.000
 15  1.85412       247.500
 16  1.86224       242.000
 17  1.86980       237.000
 18  1.87753       232.000
 19  1.88543       227.000
 20  1.89351       222.000
 21  1.90178       217.000
 22  1.91024       212.000
 23  1.91891       207.000
 24  1.92778       202.000
 25  1.93687       197.000
 26  1.94619       192.000
 27  1.95575       187.000
 28  1.96555       182.000
 29  1.97561       177.000
 30  1.98490       172.500
 31  1.99441       168.000
 32  2.00416       163.500
 33  2.01416       159.000
 34  2.02442       154.500
 35  2.03496       150.000
 36  2.04578       145.500
 37  2.05691       141.000
 38  2.06835       136.500
 39  2.08014       132.000
 40  2.09093       128.000
 41  2.10201       124.000
 42  2.11341       120.000
 43  2.12514       116.000
 44  2.13724       112.000
 45  2.14973       108.000
 46  2.16263       104.000
 47  2.17429       100.500
 48  2.18285        98.000
 49  2.19158        95.500
 50  2.20053        93.000
 51  2.20969        90.500
 52  2.21908        88.000
 53  2.22871        85.500
 54  2.23860        83.000
 55  2.24876        80.500
 56  2.25920        78.000
 57  2.26994        75.500
 58  2.27879        73.500
 59  2.28785        71.500
 60  2.29715        69.500
 61  2.30669        67.500
 62  2.31650        65.500
 63  2.32659        63.500
 64  2.33698        61.500
 65  2.34823        59.400
 66  2.35929        57.400
 67  2.37071        55.400
 68  2.38133        53.600
 69  2.39227        51.800
 70  2.40356        50.000
 71  2.41524        48.200
 72  2.42732        46.400
 73  2.43985        44.600
 74  2.45138        43.000
 75  2.46330        41.400
 76  2.47644        39.700
 77  2.48928        38.100
 78  2.50263        36.500
 79  2.51564        35.000
 80  2.52915        33.500
 81  2.54324        32.000
 82  2.55694        30.600
 83  2.57121        29.200
 84  2.58613        27.800
 85  2.60063        26.500
 86  2.61578        25.200
 87  2.63168        23.900
 88  2.64712        22.700
 89  2.66334        21.500
 90  2.67903        20.400
 91  2.69100        19.600
 92  2.70107        18.950
 93  2.71149        18.300
 94  2.72230        17.650
 95  2.73353        17.000
 96  2.74432        16.400
 97  2.75552        15.800
 98  2.76719        15.200
 99  2.77834        14.650
100  2.78995        14.100
101  2.80209        13.550
102  2.81363        13.050
103  2.82568        12.550
104  2.83832        12.050
105  2.85158        11.550
106  2.86555        11.050
107  2.87880        10.600
108  2.89274        10.150
109  2.90747         9.700
110  2.92131         9.300
111  2.93591         8.900
112  2.95137         8.500
113  2.96780         8.100
114  2.98532         7.700
115  3.00171         7.350
116  3.01913         7.000
117  3.03777         6.650
118  3.05779         6.300
119  3.08006         5.940
120  3.10148         5.620
121  3.12319         5.320
122  3.14666         5.020
123  3.17049         4.740
124  3.19636         4.460
125  3.22263         4.200
126  3.24568         3.990
127  3.26682         3.810
128  3.28820         3.640
129  3.31107         3.470
130  3.33569         3.300
131  3.36068         3.140
132  3.38591         2.990
133  3.41313         2.840
134  3.44265         2.690
135  3.47265         2.550
136  3.50527         2.410
137  3.53840         2.280
138  3.57455         2.150
139  3.61431         2.020
140  3.65474         1.900
141  3.69922         1.780
142  3.74444         1.670
143  3.79449         1.560
144  3.84566         1.460
145  3.88021         1.400
