Sensor Model:   CX-1050-CU-1.4L
Serial Number:  X63854
Data Format:    4      (Log Ohms/Kelvin)
SetPoint Limit: 325.0      (Kelvin)
Temperature coefficient:  1 (Negative)
Number of Breakpoints:   147

No.   Units      Temperature (K)

  1  1.78512       325.000
  2  1.79196       319.000
  3  1.79836       313.500
  4  1.80490       308.000
  5  1.81157       302.500
  6  1.81839       297.000
  7  1.82536       291.500
  8  1.83249       286.000
  9  1.83977       280.500
 10  1.84721       275.000
 11  1.85483       269.500
 12  1.86261       264.000
 13  1.87058       258.500
 14  1.87874       253.000
 15  1.88709       247.500
 16  1.89564       242.000
 17  1.90360       237.000
 18  1.91173       232.000
 19  1.92005       227.000
 20  1.92856       222.000
 21  1.93726       217.000
 22  1.94618       212.000
 23  1.95530       207.000
 24  1.96465       202.000
 25  1.97423       197.000
 26  1.98405       192.000
 27  1.99412       187.000
 28  2.00445       182.000
 29  2.01506       177.000
 30  2.02485       172.500
 31  2.03488       168.000
 32  2.04516       163.500
 33  2.05571       159.000
 34  2.06653       154.500
 35  2.07764       150.000
 36  2.08906       145.500
 37  2.10080       141.000
 38  2.11288       136.500
 39  2.12532       132.000
 40  2.13671       128.000
 41  2.14841       124.000
 42  2.16045       120.000
 43  2.17285       116.000
 44  2.18564       112.000
 45  2.19884       108.000
 46  2.21248       104.000
 47  2.22482       100.500
 48  2.23388        98.000
 49  2.24312        95.500
 50  2.25260        93.000
 51  2.26230        90.500
 52  2.27224        88.000
 53  2.28245        85.500
 54  2.29292        83.000
 55  2.30368        80.500
 56  2.31475        78.000
 57  2.32384        76.000
 58  2.33315        74.000
 59  2.34270        72.000
 60  2.35249        70.000
 61  2.36255        68.000
 62  2.37288        66.000
 63  2.38352        64.000
 64  2.39446        62.000
 65  2.40574        60.000
 66  2.41619        58.200
 67  2.42695        56.400
 68  2.43803        54.600
 69  2.44945        52.800
 70  2.46124        51.000
 71  2.47342        49.200
 72  2.48602        47.400
 73  2.49907        45.600
 74  2.51260        43.800
 75  2.52508        42.200
 76  2.53798        40.600
 77  2.55137        39.000
 78  2.56527        37.400
 79  2.57882        35.900
 80  2.59289        34.400
 81  2.60754        32.900
 82  2.62179        31.500
 83  2.63662        30.100
 84  2.65211        28.700
 85  2.66714        27.400
 86  2.68284        26.100
 87  2.69929        24.800
 88  2.71523        23.600
 89  2.73194        22.400
 90  2.74956        21.200
 91  2.76662        20.100
 92  2.77152        19.800
 93  2.77966        19.300
 94  2.79064        18.650
 95  2.80201        18.000
 96  2.81383        17.350
 97  2.82517        16.750
 98  2.83694        16.150
 99  2.84920        15.550
100  2.86198        14.950
101  2.87421        14.400
102  2.88696        13.850
103  2.90031        13.300
104  2.91303        12.800
105  2.92633        12.300
106  2.94030        11.800
107  2.95499        11.300
108  2.96892        10.850
109  2.98355        10.400
110  2.99900         9.950
111  3.01535         9.500
112  3.03075         9.100
113  3.04702         8.700
114  3.06430         8.300
115  3.08271         7.900
116  3.09989         7.550
117  3.11814         7.200
118  3.13765         6.850
119  3.15856         6.500
120  3.18110         6.150
121  3.20406         5.820
122  3.22815         5.500
123  3.25264         5.200
124  3.27738         4.920
125  3.30422         4.640
126  3.33352         4.360
127  3.36335         4.100
128  3.38834         3.900
129  3.41103         3.730
130  3.43531         3.560
131  3.46139         3.390
132  3.48784         3.230
133  3.51632         3.070
134  3.54523         2.920
135  3.57648         2.770
136  3.60820         2.630
137  3.64263         2.490
138  3.68031         2.350
139  3.71869         2.220
140  3.76073         2.090
141  3.80713         1.960
142  3.85450         1.840
143  3.90684         1.720
144  3.96031         1.610
145  4.01428         1.510
146  4.06907         1.420
147  4.08285         1.400
