Sensor Model:   CX-1050-CU-1.4L
Serial Number:  X63855
Data Format:    4      (Log Ohms/Kelvin)
SetPoint Limit: 325.0      (Kelvin)
Temperature coefficient:  1 (Negative)
Number of Breakpoints:   145

No.   Units      Temperature (K)

  1  1.77434       325.000
  2  1.78113       319.000
  3  1.78748       313.500
  4  1.79396       308.000
  5  1.80058       302.500
  6  1.80735       297.000
  7  1.81425       291.500
  8  1.82131       286.000
  9  1.82853       280.500
 10  1.83591       275.000
 11  1.84346       269.500
 12  1.85117       264.000
 13  1.85907       258.500
 14  1.86715       253.000
 15  1.87543       247.500
 16  1.88390       242.000
 17  1.89178       237.000
 18  1.89984       232.000
 19  1.90808       227.000
 20  1.91651       222.000
 21  1.92514       217.000
 22  1.93396       212.000
 23  1.94300       207.000
 24  1.95226       202.000
 25  1.96175       197.000
 26  1.97147       192.000
 27  1.98145       187.000
 28  1.99168       182.000
 29  2.00218       177.000
 30  2.01188       172.500
 31  2.02181       168.000
 32  2.03199       163.500
 33  2.04243       159.000
 34  2.05314       154.500
 35  2.06415       150.000
 36  2.07545       145.500
 37  2.08708       141.000
 38  2.09904       136.500
 39  2.11135       132.000
 40  2.12263       128.000
 41  2.13421       124.000
 42  2.14612       120.000
 43  2.15840       116.000
 44  2.17105       112.000
 45  2.18411       108.000
 46  2.19761       104.000
 47  2.20981       100.500
 48  2.21877        98.000
 49  2.22792        95.500
 50  2.23729        93.000
 51  2.24689        90.500
 52  2.25673        88.000
 53  2.26682        85.500
 54  2.27719        83.000
 55  2.28784        80.500
 56  2.29880        78.000
 57  2.31007        75.500
 58  2.31936        73.500
 59  2.32886        71.500
 60  2.33861        69.500
 61  2.34863        67.500
 62  2.35892        65.500
 63  2.36952        63.500
 64  2.38042        61.500
 65  2.39223        59.400
 66  2.40384        57.400
 67  2.41584        55.400
 68  2.42699        53.600
 69  2.43848        51.800
 70  2.45035        50.000
 71  2.46262        48.200
 72  2.47533        46.400
 73  2.48849        44.600
 74  2.50062        43.000
 75  2.51316        41.400
 76  2.52699        39.700
 77  2.54051        38.100
 78  2.55456        36.500
 79  2.56827        35.000
 80  2.58251        33.500
 81  2.59736        32.000
 82  2.61181        30.600
 83  2.62687        29.200
 84  2.64261        27.800
 85  2.65792        26.500
 86  2.67393        25.200
 87  2.68943        24.000
 88  2.70567        22.800
 89  2.72276        21.600
 90  2.73929        20.500
 91  2.75191        19.700
 92  2.76252        19.050
 93  2.77351        18.400
 94  2.78490        17.750
 95  2.79675        17.100
 96  2.80812        16.500
 97  2.81993        15.900
 98  2.83223        15.300
 99  2.84399        14.750
100  2.85622        14.200
101  2.86901        13.650
102  2.88118        13.150
103  2.89388        12.650
104  2.90720        12.150
105  2.92118        11.650
106  2.93591        11.150
107  2.94988        10.700
108  2.96457        10.250
109  2.98009         9.800
110  2.99468         9.400
111  3.01005         9.000
112  3.02634         8.600
113  3.04364         8.200
114  3.06208         7.800
115  3.07932         7.450
116  3.09764         7.100
117  3.11724         6.750
118  3.13828         6.400
119  3.16097         6.050
120  3.18269         5.740
121  3.20532         5.440
122  3.22978         5.140
123  3.25458         4.860
124  3.28147         4.580
125  3.31087         4.300
126  3.34084         4.040
127  3.36597         3.840
128  3.38884         3.670
129  3.41331         3.500
130  3.43965         3.330
131  3.46638         3.170
132  3.49338         3.020
133  3.52249         2.870
134  3.55408         2.720
135  3.58616         2.580
136  3.62104         2.440
137  3.65647         2.310
138  3.69512         2.180
139  3.73762         2.050
140  3.78085         1.930
141  3.82838         1.810
142  3.88116         1.690
143  3.93517         1.580
144  3.98999         1.480
145  4.03957         1.400
