Sensor Model:   CX-1050-CD-BF1.4
Serial Number:  X64004
Data Format:    4      (Log Ohms/Kelvin)
SetPoint Limit: 325.0      (Kelvin)
Temperature coefficient:  1 (Negative)
Number of Breakpoints:   149

No.   Units      Temperature (K)
 
1	1.77752	325
2	1.78449	319
3	1.791	313.5
4	1.79762	308
5	1.80436	302.5
6	1.81123	297
7	1.81822	291.5
8	1.82535	286
9	1.83261	280.5
10	1.84002	275
11	1.84758	269.5
12	1.85529	264
13	1.86316	258.5
14	1.87046	253.5
15	1.8779	248.5
16	1.88549	243.5
17	1.89324	238.5
18	1.90115	233.5
19	1.90922	228.5
20	1.91747	223.5
21	1.9259	218.5
22	1.93452	213.5
23	1.94334	208.5
24	1.95236	203.5
25	1.96161	198.5
26	1.97107	193.5
27	1.98078	188.5
28	1.98973	184
29	1.9989	179.5
30	2.00828	175
31	2.0179	170.5
32	2.02777	166
33	2.03789	161.5
34	2.04828	157
35	2.05896	152.5
36	2.06994	148
37	2.08124	143.5
38	2.09156	139.5
39	2.10217	135.5
40	2.11307	131.5
41	2.12429	127.5
42	2.13583	123.5
43	2.14774	119.5
44	2.16001	115.5
45	2.17268	111.5
46	2.18412	108
47	2.1959	104.5
48	2.20805	101
49	2.21696	98.5
50	2.22609	96
51	2.23543	93.5
52	2.245	91
53	2.25481	88.5
54	2.26487	86
55	2.27521	83.5
56	2.28368	81.5
57	2.29233	79.5
58	2.30119	77.5
59	2.31025	75.5
60	2.31953	73.5
61	2.32904	71.5
62	2.33878	69.5
63	2.34878	67.5
64	2.35905	65.5
65	2.3696	63.5
66	2.38045	61.5
67	2.39218	59.4
68	2.40253	57.6
69	2.41317	55.8
70	2.42412	54
71	2.43539	52.2
72	2.44702	50.4
73	2.45901	48.6
74	2.47001	47
75	2.48135	45.4
76	2.49304	43.8
77	2.50511	42.2
78	2.5176	40.6
79	2.52972	39.1
80	2.54225	37.6
81	2.55524	36.1
82	2.56872	34.6
83	2.58179	33.2
84	2.59537	31.8
85	2.6095	30.4
86	2.62317	29.1
87	2.63741	27.8
88	2.65229	26.5
89	2.66665	25.3
90	2.68167	24.1
91	2.69743	22.9
92	2.7126	21.8
93	2.72854	20.7
94	2.74145	19.85
95	2.75171	19.2
96	2.76233	18.55
97	2.77334	17.9
98	2.78388	17.3
99	2.79482	16.7
100	2.80619	16.1
101	2.81703	15.55
102	2.82829	15
103	2.84002	14.45
104	2.85227	13.9
105	2.8639	13.4
106	2.87604	12.9
107	2.88875	12.4
108	2.90208	11.9
109	2.91611	11.4
110	2.9294	10.95
111	2.94338	10.5
112	2.95814	10.05
113	2.97378	9.6
114	2.98849	9.2
115	3.00408	8.8
116	3.02063	8.4
117	3.03829	8
118	3.05476	7.65
119	3.07231	7.3
120	3.09107	6.95
121	3.11122	6.6
122	3.13296	6.25
123	3.15653	5.9
124	3.17993	5.58
125	3.20373	5.28
126	3.22782	5
127	3.25401	4.72
128	3.28262	4.44
129	3.31172	4.18
130	3.33729	3.97
131	3.35953	3.8
132	3.38331	3.63
133	3.40883	3.46
134	3.43464	3.3
135	3.46239	3.14
136	3.4904	2.99
137	3.52058	2.84
138	3.55322	2.69
139	3.5862	2.55
140	3.62195	2.41
141	3.65796	2.28
142	3.69706	2.15
143	3.73968	2.02
144	3.78261	1.9
145	3.82542	1.79
146	3.872	1.68
147	3.92291	1.57
148	3.97879	1.46
149	4.01165	1.4
