Sensor Model:   CX-1050-AA-1.4L
Serial Number:  X64693
Data Format:    4      (Log Ohms/Kelvin)
SetPoint Limit: 325.0      (Kelvin)
Temperature coefficient:  1 (Negative)
Number of Breakpoints:   148

No.   Units      Temperature (K)

  1  1.86296       325.000
  2  1.87039       319.000
  3  1.87735       313.500
  4  1.88445       308.000
  5  1.89171       302.500
  6  1.89912       297.000
  7  1.90670       291.500
  8  1.91445       286.000
  9  1.92236       280.500
 10  1.93046       275.000
 11  1.93875       269.500
 12  1.94722       264.000
 13  1.95590       258.500
 14  1.96478       253.000
 15  1.97387       247.500
 16  1.98234       242.500
 17  1.99098       237.500
 18  1.99983       232.500
 19  2.00888       227.500
 20  2.01813       222.500
 21  2.02761       217.500
 22  2.03731       212.500
 23  2.04725       207.500
 24  2.05742       202.500
 25  2.06786       197.500
 26  2.07856       192.500
 27  2.08953       187.500
 28  2.10079       182.500
 29  2.11235       177.500
 30  2.12304       173.000
 31  2.13398       168.500
 32  2.14521       164.000
 33  2.15672       159.500
 34  2.16855       155.000
 35  2.18070       150.500
 36  2.19319       146.000
 37  2.20604       141.500
 38  2.21928       137.000
 39  2.23139       133.000
 40  2.24382       129.000
 41  2.25662       125.000
 42  2.26979       121.000
 43  2.28337       117.000
 44  2.29737       113.000
 45  2.31183       109.000
 46  2.32678       105.000
 47  2.34030       101.500
 48  2.35022        99.000
 49  2.36035        96.500
 50  2.37073        94.000
 51  2.38137        91.500
 52  2.39226        89.000
 53  2.40345        86.500
 54  2.41493        84.000
 55  2.42672        81.500
 56  2.43887        79.000
 57  2.44886        77.000
 58  2.45909        75.000
 59  2.46958        73.000
 60  2.48033        71.000
 61  2.49138        69.000
 62  2.50273        67.000
 63  2.51441        65.000
 64  2.52643        63.000
 65  2.53882        61.000
 66  2.55159        59.000
 67  2.56478        57.000
 68  2.57704        55.200
 69  2.58967        53.400
 70  2.60272        51.600
 71  2.61620        49.800
 72  2.63015        48.000
 73  2.64461        46.200
 74  2.65792        44.600
 75  2.67168        43.000
 76  2.68593        41.400
 77  2.70165        39.700
 78  2.71704        38.100
 79  2.73204        36.600
 80  2.74762        35.100
 81  2.76384        33.600
 82  2.77963        32.200
 83  2.79606        30.800
 84  2.81323        29.400
 85  2.82989        28.100
 86  2.84730        26.800
 87  2.86554        25.500
 88  2.88322        24.300
 89  2.90176        23.100
 90  2.92129        21.900
 91  2.94017        20.800
 92  2.95551        19.950
 93  2.96767        19.300
 94  2.98026        18.650
 95  2.99333        18.000
 96  3.00586        17.400
 97  3.01885        16.800
 98  3.03237        16.200
 99  3.04645        15.600
100  3.05992        15.050
101  3.07395        14.500
102  3.08860        13.950
103  3.10250        13.450
104  3.11702        12.950
105  3.13224        12.450
106  3.14822        11.950
107  3.16504        11.450
108  3.18100        11.000
109  3.19776        10.550
110  3.21548        10.100
111  3.23423         9.650
112  3.25191         9.250
113  3.27058         8.850
114  3.29042         8.450
115  3.31157         8.050
116  3.33131         7.700
117  3.35227         7.350
118  3.37469         7.000
119  3.39871         6.650
120  3.42460         6.300
121  3.45346         5.940
122  3.47951         5.640
123  3.50761         5.340
124  3.53814         5.040
125  3.56918         4.760
126  3.60051         4.500
127  3.63465         4.240
128  3.66623         4.020
129  3.69404         3.840
130  3.72218         3.670
131  3.75239         3.500
132  3.78303         3.340
133  3.81601         3.180
134  3.84946         3.030
135  3.88559         2.880
136  3.92486         2.730
137  3.96481         2.590
138  4.00829         2.450
139  4.05247         2.320
140  4.10066         2.190
141  4.15368         2.060
142  4.20774         1.940
143  4.26742         1.820
144  4.32839         1.710
145  4.39013         1.610
146  4.45918         1.510
147  4.54413         1.400
148  4.73814         1.194
