Sensor Model:   CX-1050-AA-1.4L
Serial Number:  X64682
Data Format:    4      (Log Ohms/Kelvin)
SetPoint Limit: 325.0      (Kelvin)
Temperature coefficient:  1 (Negative)
Number of Breakpoints:   148

No.   Units      Temperature (K)

  1  1.82626       325.000
  2  1.83339       319.000
  3  1.84007       313.500
  4  1.84688       308.000
  5  1.85385       302.500
  6  1.86096       297.000
  7  1.86822       291.500
  8  1.87565       286.000
  9  1.88324       280.500
 10  1.89101       275.000
 11  1.89895       269.500
 12  1.90707       264.000
 13  1.91539       258.500
 14  1.92390       253.000
 15  1.93261       247.500
 16  1.94154       242.000
 17  1.94985       237.000
 18  1.95834       232.000
 19  1.96702       227.000
 20  1.97590       222.000
 21  1.98500       217.000
 22  1.99431       212.000
 23  2.00384       207.000
 24  2.01361       202.000
 25  2.02363       197.000
 26  2.03389       192.000
 27  2.04443       187.000
 28  2.05524       182.000
 29  2.06522       177.500
 30  2.07545       173.000
 31  2.08593       168.500
 32  2.09668       164.000
 33  2.10771       159.500
 34  2.11903       155.000
 35  2.13066       150.500
 36  2.14261       146.000
 37  2.15490       141.500
 38  2.16755       137.000
 39  2.17912       133.000
 40  2.19099       129.000
 41  2.20321       125.000
 42  2.21577       121.000
 43  2.22872       117.000
 44  2.24207       113.000
 45  2.25585       109.000
 46  2.27010       105.000
 47  2.28299       101.500
 48  2.29246        99.000
 49  2.30213        96.500
 50  2.31203        94.000
 51  2.32217        91.500
 52  2.33257        89.000
 53  2.34324        86.500
 54  2.35418        84.000
 55  2.36542        81.500
 56  2.37698        79.000
 57  2.38648        77.000
 58  2.39619        75.000
 59  2.40616        73.000
 60  2.41639        71.000
 61  2.42689        69.000
 62  2.43768        67.000
 63  2.44878        65.000
 64  2.46020        63.000
 65  2.47197        61.000
 66  2.48411        59.000
 67  2.49663        57.000
 68  2.50958        55.000
 69  2.52163        53.200
 70  2.53405        51.400
 71  2.54689        49.600
 72  2.56017        47.800
 73  2.57393        46.000
 74  2.58820        44.200
 75  2.60136        42.600
 76  2.61498        41.000
 77  2.63001        39.300
 78  2.64472        37.700
 79  2.65906        36.200
 80  2.67396        34.700
 81  2.68948        33.200
 82  2.70457        31.800
 83  2.72029        30.400
 84  2.73670        29.000
 85  2.75264        27.700
 86  2.76929        26.400
 87  2.78674        25.100
 88  2.80365        23.900
 89  2.82139        22.700
 90  2.84008        21.500
 91  2.85818        20.400
 92  2.87201        19.600
 93  2.88365        18.950
 94  2.89571        18.300
 95  2.90824        17.650
 96  2.92025        17.050
 97  2.93271        16.450
 98  2.94569        15.850
 99  2.95921        15.250
100  2.97214        14.700
101  2.98560        14.150
102  2.99971        13.600
103  3.01313        13.100
104  3.02716        12.600
105  3.04189        12.100
106  3.05736        11.600
107  3.07201        11.150
108  3.08739        10.700
109  3.10360        10.250
110  3.12074         9.800
111  3.13686         9.400
112  3.15386         9.000
113  3.17189         8.600
114  3.19106         8.200
115  3.21151         7.800
116  3.23064         7.450
117  3.25100         7.100
118  3.27280         6.750
119  3.29623         6.400
120  3.32154         6.050
121  3.34578         5.740
122  3.37109         5.440
123  3.39848         5.140
124  3.42628         4.860
125  3.45648         4.580
126  3.48713         4.320
127  3.52058         4.060
128  3.54874         3.860
129  3.57435         3.690
130  3.60179         3.520
131  3.62956         3.360
132  3.65938         3.200
133  3.69163         3.040
134  3.72438         2.890
135  3.75746         2.750
136  3.79328         2.610
137  3.83232         2.470
138  3.87197         2.340
139  3.91525         2.210
140  3.96288         2.080
141  4.01135         1.960
142  4.06465         1.840
143  4.12384         1.720
144  4.18430         1.610
145  4.24540         1.510
146  4.30745         1.420
147  4.32306         1.400
148  4.49147         1.200
