Sensor Model:   CX-1050-CU-HT-1.4M
Serial Number:  X66148
Data Format:    4      (Log Ohms/Kelvin)
SetPoint Limit: 420.0      (Kelvin)
Temperature coefficient:  1 (Negative)
Number of Breakpoints:   156

No.   Units      Temperature (K)

  1  1.68745       420.000
  2  1.69490       411.000
  3  1.70213       402.500
  4  1.70957       394.000
  5  1.71722       385.500
  6  1.72510       377.000
  7  1.73321       368.500
  8  1.74108       360.500
  9  1.74917       352.500
 10  1.75749       344.500
 11  1.76607       336.500
 12  1.77490       328.500
 13  1.78229       322.000
 14  1.78868       316.500
 15  1.79519       311.000
 16  1.80185       305.500
 17  1.80866       300.000
 18  1.81561       294.500
 19  1.82271       289.000
 20  1.82997       283.500
 21  1.83739       278.000
 22  1.84497       272.500
 23  1.85273       267.000
 24  1.86067       261.500
 25  1.86880       256.000
 26  1.87711       250.500
 27  1.88563       245.000
 28  1.89355       240.000
 29  1.90165       235.000
 30  1.90994       230.000
 31  1.91841       225.000
 32  1.92708       220.000
 33  1.93595       215.000
 34  1.94504       210.000
 35  1.95434       205.000
 36  1.96386       200.000
 37  1.97362       195.000
 38  1.98362       190.000
 39  1.99388       185.000
 40  2.00440       180.000
 41  2.01520       175.000
 42  2.02518       170.500
 43  2.03540       166.000
 44  2.04587       161.500
 45  2.05662       157.000
 46  2.06764       152.500
 47  2.07896       148.000
 48  2.09060       143.500
 49  2.10256       139.000
 50  2.11486       134.500
 51  2.12754       130.000
 52  2.13914       126.000
 53  2.15106       122.000
 54  2.16333       118.000
 55  2.17597       114.000
 56  2.18900       110.000
 57  2.20245       106.000
 58  2.21635       102.000
 59  2.22711        99.000
 60  2.23629        96.500
 61  2.24568        94.000
 62  2.25528        91.500
 63  2.26513        89.000
 64  2.27522        86.500
 65  2.28557        84.000
 66  2.29621        81.500
 67  2.30713        79.000
 68  2.31838        76.500
 69  2.32995        74.000
 70  2.33949        72.000
 71  2.34924        70.000
 72  2.35926        68.000
 73  2.36955        66.000
 74  2.38012        64.000
 75  2.39100        62.000
 76  2.40220        60.000
 77  2.41375        58.000
 78  2.42567        56.000
 79  2.43674        54.200
 80  2.44813        52.400
 81  2.45990        50.600
 82  2.47205        48.800
 83  2.48462        47.000
 84  2.49763        45.200
 85  2.51111        43.400
 86  2.52355        41.800
 87  2.53640        40.200
 88  2.54973        38.600
 89  2.56358        37.000
 90  2.57798        35.400
 91  2.59202        33.900
 92  2.60663        32.400
 93  2.62186        30.900
 94  2.63670        29.500
 95  2.65217        28.100
 96  2.66721        26.800
 97  2.68291        25.500
 98  2.69938        24.200
 99  2.71535        23.000
100  2.73212        21.800
101  2.74831        20.700
102  2.76143        19.850
103  2.77264        19.150
104  2.78342        18.500
105  2.79459        17.850
106  2.80619        17.200
107  2.81732        16.600
108  2.82887        16.000
109  2.84090        15.400
110  2.85239        14.850
111  2.86434        14.300
112  2.87682        13.750
113  2.88988        13.200
114  2.90231        12.700
115  2.91531        12.200
116  2.92896        11.700
117  2.94332        11.200
118  2.95694        10.750
119  2.97125        10.300
120  2.98637         9.850
121  3.00236         9.400
122  3.01744         9.000
123  3.03335         8.600
124  3.05028         8.200
125  3.06832         7.800
126  3.08519         7.450
127  3.10310         7.100
128  3.12226         6.750
129  3.14281         6.400
130  3.16496         6.050
131  3.18614         5.740
132  3.20820         5.440
133  3.23203         5.140
134  3.25618         4.860
135  3.28236         4.580
136  3.31098         4.300
137  3.34017         4.040
138  3.36465         3.840
139  3.38693         3.670
140  3.41078         3.500
141  3.43645         3.330
142  3.46253         3.170
143  3.48885         3.020
144  3.51723         2.870
145  3.54800         2.720
146  3.57923         2.580
147  3.61315         2.440
148  3.65028         2.300
149  3.68813         2.170
150  3.72639         2.050
151  3.76833         1.930
152  3.81469         1.810
153  3.86189         1.700
154  3.91429         1.590
155  3.96768         1.490
156  4.02131         1.400
