Sensor Model:   CX-1010-SD-0.3L
Serial Number:  X67737
Data Format:    4      (Log Ohms/Kelvin)
SetPoint Limit: 325.0      (Kelvin)
Temperature coefficient:  1 (Negative)
Number of Breakpoints:   174

No.   Units      Temperature (K)

  1  1.46462       325.000
  2  1.46895       319.000
  3  1.47300       313.500
  4  1.47713       308.000
  5  1.48136       302.500
  6  1.48568       297.000
  7  1.49009       291.500
  8  1.49460       286.000
  9  1.49921       280.500
 10  1.50393       275.000
 11  1.50875       269.500
 12  1.51368       264.000
 13  1.51873       258.500
 14  1.52389       253.000
 15  1.52917       247.500
 16  1.53457       242.000
 17  1.54010       236.500
 18  1.54577       231.000
 19  1.55157       225.500
 20  1.55697       220.500
 21  1.56249       215.500
 22  1.56813       210.500
 23  1.57391       205.500
 24  1.57982       200.500
 25  1.58586       195.500
 26  1.59206       190.500
 27  1.59840       185.500
 28  1.60490       180.500
 29  1.61156       175.500
 30  1.61838       170.500
 31  1.62539       165.500
 32  1.63257       160.500
 33  1.63995       155.500
 34  1.64677       151.000
 35  1.65375       146.500
 36  1.66092       142.000
 37  1.66827       137.500
 38  1.67582       133.000
 39  1.68358       128.500
 40  1.69156       124.000
 41  1.69978       119.500
 42  1.70731       115.500
 43  1.71504       111.500
 44  1.72300       107.500
 45  1.73121       103.500
 46  1.73756       100.500
 47  1.74295        98.000
 48  1.74846        95.500
 49  1.75409        93.000
 50  1.75985        90.500
 51  1.76574        88.000
 52  1.77177        85.500
 53  1.77795        83.000
 54  1.78429        80.500
 55  1.79081        78.000
 56  1.79750        75.500
 57  1.80439        73.000
 58  1.81005        71.000
 59  1.81585        69.000
 60  1.82179        67.000
 61  1.82790        65.000
 62  1.83417        63.000
 63  1.84061        61.000
 64  1.84724        59.000
 65  1.85407        57.000
 66  1.86111        55.000
 67  1.86838        53.000
 68  1.87513        51.200
 69  1.88209        49.400
 70  1.88927        47.600
 71  1.89668        45.800
 72  1.90436        44.000
 73  1.91230        42.200
 74  1.92053        40.400
 75  1.92860        38.700
 76  1.93647        37.100
 77  1.94463        35.500
 78  1.95310        33.900
 79  1.96135        32.400
 80  1.96991        30.900
 81  1.97883        29.400
 82  1.98751        28.000
 83  1.99654        26.600
 84  2.00599        25.200
 85  2.01518        23.900
 86  2.02404        22.700
 87  2.03333        21.500
 88  2.04309        20.300
 89  2.05037        19.450
 90  2.05657        18.750
 91  2.06252        18.100
 92  2.06868        17.450
 93  2.07506        16.800
 94  2.08168        16.150
 95  2.08804        15.550
 96  2.09465        14.950
 97  2.10153        14.350
 98  2.10811        13.800
 99  2.11497        13.250
100  2.12214        12.700
101  2.12895        12.200
102  2.13607        11.700
103  2.14354        11.200
104  2.15139        10.700
105  2.15883        10.250
106  2.16663         9.800
107  2.17487         9.350
108  2.18358         8.900
109  2.19178         8.500
110  2.20044         8.100
111  2.20963         7.700
112  2.21942         7.300
113  2.22989         6.900
114  2.23969         6.550
115  2.25014         6.200
116  2.26167         5.840
117  2.27343         5.500
118  2.28536         5.180
119  2.29743         4.880
120  2.31046         4.580
121  2.32368         4.300
122  2.33803         4.020
123  2.34142         3.960
124  2.34917         3.820
125  2.35982         3.640
126  2.37118         3.460
127  2.38333         3.280
128  2.39565         3.110
129  2.40808         2.950
130  2.42146         2.790
131  2.43587         2.630
132  2.45051         2.480
133  2.46635         2.330
134  2.48246         2.190
135  2.49871         2.060
136  2.51639         1.930
137  2.53580         1.800
138  2.55553         1.680
139  2.57727         1.560
140  2.59940         1.450
141  2.62393         1.340
142  2.65147         1.230
143  2.65717         1.210
144  2.66540         1.180
145  2.67843         1.135
146  2.69222         1.090
147  2.70682         1.045
148  2.72057         1.005
149  2.73507         0.965
150  2.75045         0.925
151  2.76677         0.885
152  2.78416         0.845
153  2.80272         0.805
154  2.82009         0.770
155  2.83855         0.735
156  2.85832         0.700
157  2.87954         0.665
158  2.90244         0.630
159  2.92365         0.600
160  2.94641         0.570
161  2.97108         0.540
162  2.99787         0.510
163  3.01919         0.488
164  3.03974         0.468
165  3.06165         0.448
166  3.08501         0.428
167  3.10994         0.408
168  3.13388         0.390
169  3.15933         0.372
170  3.18651         0.354
171  3.21243         0.338
172  3.24024         0.322
173  3.26674         0.308
174  3.28312         0.300
