Sensor Model:   CX-1050-CU-1.4L
Serial Number:  X71741
Data Format:    4      (Log Ohms/Kelvin)
SetPoint Limit: 325.0      (Kelvin)
Temperature coefficient:  1 (Negative)
Number of Breakpoints:   146

No.   Units      Temperature (K)

  1  1.82721       325.000
  2  1.83416       319.000
  3  1.84067       313.500
  4  1.84732       308.000
  5  1.85411       302.500
  6  1.86104       297.000
  7  1.86812       291.500
  8  1.87536       286.000
  9  1.88276       280.500
 10  1.89032       275.000
 11  1.89806       269.500
 12  1.90597       264.000
 13  1.91406       258.500
 14  1.92234       253.000
 15  1.93082       247.500
 16  1.93950       242.000
 17  1.94758       237.000
 18  1.95583       232.000
 19  1.96427       227.000
 20  1.97291       222.000
 21  1.98174       217.000
 22  1.99079       212.000
 23  2.00004       207.000
 24  2.00953       202.000
 25  2.01924       197.000
 26  2.02920       192.000
 27  2.03941       187.000
 28  2.04989       182.000
 29  2.06064       177.000
 30  2.07056       172.500
 31  2.08073       168.000
 32  2.09115       163.500
 33  2.10183       159.000
 34  2.11280       154.500
 35  2.12406       150.000
 36  2.13562       145.500
 37  2.14751       141.000
 38  2.15974       136.500
 39  2.17233       132.000
 40  2.18386       128.000
 41  2.19569       124.000
 42  2.20788       120.000
 43  2.22042       116.000
 44  2.23335       112.000
 45  2.24669       108.000
 46  2.26048       104.000
 47  2.27294       100.500
 48  2.28209        98.000
 49  2.29143        95.500
 50  2.30100        93.000
 51  2.31079        90.500
 52  2.32084        88.000
 53  2.33114        85.500
 54  2.34171        83.000
 55  2.35258        80.500
 56  2.36375        78.000
 57  2.37526        75.500
 58  2.38473        73.500
 59  2.39443        71.500
 60  2.40438        69.500
 61  2.41460        67.500
 62  2.42510        65.500
 63  2.43590        63.500
 64  2.44702        61.500
 65  2.45906        59.400
 66  2.47090        57.400
 67  2.48313        55.400
 68  2.49450        53.600
 69  2.50623        51.800
 70  2.51834        50.000
 71  2.53086        48.200
 72  2.54383        46.400
 73  2.55727        44.600
 74  2.56966        43.000
 75  2.58246        41.400
 76  2.59659        39.700
 77  2.61040        38.100
 78  2.62476        36.500
 79  2.63877        35.000
 80  2.65333        33.500
 81  2.66852        32.000
 82  2.68331        30.600
 83  2.69872        29.200
 84  2.71485        27.800
 85  2.73053        26.500
 86  2.74694        25.200
 87  2.76283        24.000
 88  2.77949        22.800
 89  2.79703        21.600
 90  2.81398        20.500
 91  2.82693        19.700
 92  2.83781        19.050
 93  2.84907        18.400
 94  2.86075        17.750
 95  2.87289        17.100
 96  2.88455        16.500
 97  2.89665        15.900
 98  2.90926        15.300
 99  2.92132        14.750
100  2.93387        14.200
101  2.94698        13.650
102  2.95945        13.150
103  2.97246        12.650
104  2.98610        12.150
105  3.00042        11.650
106  3.01549        11.150
107  3.02978        10.700
108  3.04481        10.250
109  3.06068         9.800
110  3.07559         9.400
111  3.09129         9.000
112  3.10793         8.600
113  3.12559         8.200
114  3.14441         7.800
115  3.16199         7.450
116  3.18068         7.100
117  3.20066         6.750
118  3.22210         6.400
119  3.24523         6.050
120  3.26736         5.740
121  3.29042         5.440
122  3.31536         5.140
123  3.34063         4.860
124  3.36806         4.580
125  3.39586         4.320
126  3.42619         4.060
127  3.45169         3.860
128  3.47487         3.690
129  3.49970         3.520
130  3.52482         3.360
131  3.55178         3.200
132  3.58092         3.040
133  3.61051         2.890
134  3.64255         2.740
135  3.67511         2.600
136  3.71051         2.460
137  3.74648         2.330
138  3.78572         2.200
139  3.82891         2.070
140  3.87287         1.950
141  3.92126         1.830
142  3.97505         1.710
143  4.03012         1.600
144  4.08591         1.500
145  4.14254         1.410
146  4.14980         1.400
