Sensor Model:   CX-1050-CU-1.4L
Serial Number:  X71738
Data Format:    4      (Log Ohms/Kelvin)
SetPoint Limit: 325.0      (Kelvin)
Temperature coefficient:  1 (Negative)
Number of Breakpoints:   145

No.   Units      Temperature (K)

  1  1.81191       325.000
  2  1.81862       319.000
  3  1.82490       313.500
  4  1.83132       308.000
  5  1.83787       302.500
  6  1.84457       297.000
  7  1.85141       291.500
  8  1.85841       286.000
  9  1.86555       280.500
 10  1.87286       275.000
 11  1.88034       269.500
 12  1.88799       264.000
 13  1.89581       258.500
 14  1.90382       253.000
 15  1.91202       247.500
 16  1.92042       242.000
 17  1.92824       237.000
 18  1.93623       232.000
 19  1.94440       227.000
 20  1.95275       222.000
 21  1.96131       217.000
 22  1.97007       212.000
 23  1.97903       207.000
 24  1.98822       202.000
 25  1.99763       197.000
 26  2.00728       192.000
 27  2.01718       187.000
 28  2.02733       182.000
 29  2.03775       177.000
 30  2.04738       172.500
 31  2.05723       168.000
 32  2.06734       163.500
 33  2.07770       159.000
 34  2.08833       154.500
 35  2.09925       150.000
 36  2.11047       145.500
 37  2.12199       141.000
 38  2.13385       136.500
 39  2.14606       132.000
 40  2.15724       128.000
 41  2.16871       124.000
 42  2.18052       120.000
 43  2.19268       116.000
 44  2.20522       112.000
 45  2.21816       108.000
 46  2.23152       104.000
 47  2.24361       100.500
 48  2.25248        98.000
 49  2.26154        95.500
 50  2.27082        93.000
 51  2.28032        90.500
 52  2.29006        88.000
 53  2.30005        85.500
 54  2.31030        83.000
 55  2.32084        80.500
 56  2.33167        78.000
 57  2.34283        75.500
 58  2.35202        73.500
 59  2.36142        71.500
 60  2.37106        69.500
 61  2.38097        67.500
 62  2.39115        65.500
 63  2.40161        63.500
 64  2.41239        61.500
 65  2.42406        59.400
 66  2.43554        57.400
 67  2.44739        55.400
 68  2.45841        53.600
 69  2.46977        51.800
 70  2.48151        50.000
 71  2.49364        48.200
 72  2.50620        46.400
 73  2.51923        44.600
 74  2.53123        43.000
 75  2.54363        41.400
 76  2.55732        39.700
 77  2.57069        38.100
 78  2.58460        36.500
 79  2.59816        35.000
 80  2.61226        33.500
 81  2.62696        32.000
 82  2.64127        30.600
 83  2.65618        29.200
 84  2.67178        27.800
 85  2.68694        26.500
 86  2.70280        25.200
 87  2.71817        24.000
 88  2.73427        22.800
 89  2.75121        21.600
 90  2.76759        20.500
 91  2.78009        19.700
 92  2.79059        19.050
 93  2.80147        18.400
 94  2.81275        17.750
 95  2.82447        17.100
 96  2.83571        16.500
 97  2.84739        15.900
 98  2.85956        15.300
 99  2.87118        14.750
100  2.88328        14.200
101  2.89592        13.650
102  2.90915        13.100
103  2.92177        12.600
104  2.93496        12.100
105  2.94881        11.600
106  2.96339        11.100
107  2.97723        10.650
108  2.99176        10.200
109  3.00712         9.750
110  3.02155         9.350
111  3.03675         8.950
112  3.05285         8.550
113  3.06994         8.150
114  3.08816         7.750
115  3.10519         7.400
116  3.12328         7.050
117  3.14263         6.700
118  3.16341         6.350
119  3.18715         5.980
120  3.20941         5.660
121  3.23196         5.360
122  3.25633         5.060
123  3.28106         4.780
124  3.30792         4.500
125  3.33519         4.240
126  3.36028         4.020
127  3.38235         3.840
128  3.40461         3.670
129  3.42846         3.500
130  3.45259         3.340
131  3.47849         3.180
132  3.50647         3.020
133  3.53489         2.870
134  3.56566         2.720
135  3.59693         2.580
136  3.63094         2.440
137  3.66548         2.310
138  3.70318         2.180
139  3.74467         2.050
140  3.78691         1.930
141  3.83342         1.810
142  3.88073         1.700
143  3.93308         1.590
144  3.98636         1.490
145  4.04041         1.400
146  5.0             0.3
