Sensor Model:   CX-1050-CU-1.4L
Serial Number:  X71777
Data Format:    4      (Log Ohms/Kelvin)
SetPoint Limit: 325.0      (Kelvin)
Temperature coefficient:  1 (Negative)
Number of Breakpoints:   146

No.   Units      Temperature (K)

  1  1.84179       325.000
  2  1.84887       319.000
  3  1.85549       313.500
  4  1.86225       308.000
  5  1.86915       302.500
  6  1.87620       297.000
  7  1.88341       291.500
  8  1.89077       286.000
  9  1.89829       280.500
 10  1.90598       275.000
 11  1.91385       269.500
 12  1.92189       264.000
 13  1.93012       258.500
 14  1.93855       253.000
 15  1.94717       247.500
 16  1.95600       242.000
 17  1.96422       237.000
 18  1.97262       232.000
 19  1.98120       227.000
 20  1.98999       222.000
 21  1.99898       217.000
 22  2.00818       212.000
 23  2.01760       207.000
 24  2.02725       202.000
 25  2.03714       197.000
 26  2.04727       192.000
 27  2.05766       187.000
 28  2.06832       182.000
 29  2.07927       177.000
 30  2.08937       172.500
 31  2.09972       168.000
 32  2.11033       163.500
 33  2.12121       159.000
 34  2.13238       154.500
 35  2.14384       150.000
 36  2.15562       145.500
 37  2.16774       141.000
 38  2.18020       136.500
 39  2.19304       132.000
 40  2.20478       128.000
 41  2.21685       124.000
 42  2.22927       120.000
 43  2.24206       116.000
 44  2.25524       112.000
 45  2.26885       108.000
 46  2.28291       104.000
 47  2.29562       100.500
 48  2.30495        98.000
 49  2.31448        95.500
 50  2.32424        93.000
 51  2.33423        90.500
 52  2.34448        88.000
 53  2.35499        85.500
 54  2.36579        83.000
 55  2.37688        80.500
 56  2.38829        78.000
 57  2.40004        75.500
 58  2.40971        73.500
 59  2.41961        71.500
 60  2.42977        69.500
 61  2.44020        67.500
 62  2.45093        65.500
 63  2.46196        63.500
 64  2.47332        61.500
 65  2.48562        59.400
 66  2.49772        57.400
 67  2.51022        55.400
 68  2.52185        53.600
 69  2.53383        51.800
 70  2.54621        50.000
 71  2.55902        48.200
 72  2.57227        46.400
 73  2.58602        44.600
 74  2.59869        43.000
 75  2.61179        41.400
 76  2.62624        39.700
 77  2.64038        38.100
 78  2.65508        36.500
 79  2.66942        35.000
 80  2.68433        33.500
 81  2.69989        32.000
 82  2.71504        30.600
 83  2.73083        29.200
 84  2.74737        27.800
 85  2.76344        26.500
 86  2.78027        25.200
 87  2.79658        24.000
 88  2.81367        22.800
 89  2.83166        21.600
 90  2.84907        20.500
 91  2.86235        19.700
 92  2.87352        19.050
 93  2.88509        18.400
 94  2.89709        17.750
 95  2.90956        17.100
 96  2.92153        16.500
 97  2.93398        15.900
 98  2.94695        15.300
 99  2.95936        14.750
100  2.97228        14.200
101  2.98577        13.650
102  2.99860        13.150
103  3.01200        12.650
104  3.02604        12.150
105  3.04078        11.650
106  3.05630        11.150
107  3.07102        10.700
108  3.08650        10.250
109  3.10285         9.800
110  3.11822         9.400
111  3.13441         9.000
112  3.15157         8.600
113  3.16979         8.200
114  3.18922         7.800
115  3.20737         7.450
116  3.22667         7.100
117  3.24732         6.750
118  3.26950         6.400
119  3.29342         6.050
120  3.31633         5.740
121  3.34021         5.440
122  3.36604         5.140
123  3.39223         4.860
124  3.42067         4.580
125  3.44952         4.320
126  3.48098         4.060
127  3.50747         3.860
128  3.53154         3.690
129  3.55734         3.520
130  3.58344         3.360
131  3.61148         3.200
132  3.64178         3.040
133  3.67258         2.890
134  3.70367         2.750
135  3.73735         2.610
136  3.77407         2.470
137  3.81135         2.340
138  3.85207         2.210
139  3.89688         2.080
140  3.94249         1.960
141  3.99266         1.840
142  4.04840         1.720
143  4.10539         1.610
144  4.16302         1.510
145  4.22158         1.420
146  4.23632         1.400
