Sensor Model:   CX-1050-CU-1.4L
Serial Number:  X71737
Data Format:    4      (Log Ohms/Kelvin)
SetPoint Limit: 325.0      (Kelvin)
Temperature coefficient:  1 (Negative)
Number of Breakpoints:   146

No.   Units      Temperature (K)

  1  1.82964       325.000
  2  1.83664       319.000
  3  1.84318       313.500
  4  1.84985       308.000
  5  1.85667       302.500
  6  1.86364       297.000
  7  1.87075       291.500
  8  1.87802       286.000
  9  1.88546       280.500
 10  1.89306       275.000
 11  1.90083       269.500
 12  1.90878       264.000
 13  1.91691       258.500
 14  1.92523       253.000
 15  1.93375       247.500
 16  1.94248       242.000
 17  1.95141       236.500
 18  1.95973       231.500
 19  1.96823       226.500
 20  1.97693       221.500
 21  1.98582       216.500
 22  1.99493       211.500
 23  2.00425       206.500
 24  2.01380       201.500
 25  2.02358       196.500
 26  2.03361       191.500
 27  2.04389       186.500
 28  2.05444       181.500
 29  2.06527       176.500
 30  2.07527       172.000
 31  2.08551       167.500
 32  2.09601       163.000
 33  2.10678       158.500
 34  2.11784       154.000
 35  2.12919       149.500
 36  2.14085       145.000
 37  2.15284       140.500
 38  2.16517       136.000
 39  2.17788       131.500
 40  2.18950       127.500
 41  2.20144       123.500
 42  2.21373       119.500
 43  2.22639       115.500
 44  2.23943       111.500
 45  2.25290       107.500
 46  2.26682       103.500
 47  2.27760       100.500
 48  2.28679        98.000
 49  2.29619        95.500
 50  2.30581        93.000
 51  2.31566        90.500
 52  2.32576        88.000
 53  2.33612        85.500
 54  2.34675        83.000
 55  2.35767        80.500
 56  2.36890        78.000
 57  2.38047        75.500
 58  2.38999        73.500
 59  2.39973        71.500
 60  2.40974        69.500
 61  2.42001        67.500
 62  2.43057        65.500
 63  2.44143        63.500
 64  2.45262        61.500
 65  2.46473        59.400
 66  2.47664        57.400
 67  2.48894        55.400
 68  2.50038        53.600
 69  2.51217        51.800
 70  2.52436        50.000
 71  2.53696        48.200
 72  2.55000        46.400
 73  2.56352        44.600
 74  2.57599        43.000
 75  2.58887        41.400
 76  2.60308        39.700
 77  2.61698        38.100
 78  2.63143        36.500
 79  2.64552        35.000
 80  2.66017        33.500
 81  2.67545        32.000
 82  2.69033        30.600
 83  2.70585        29.200
 84  2.72207        27.800
 85  2.73786        26.500
 86  2.75437        25.200
 87  2.77037        24.000
 88  2.78713        22.800
 89  2.80479        21.600
 90  2.82185        20.500
 91  2.83488        19.700
 92  2.84583        19.050
 93  2.85717        18.400
 94  2.86893        17.750
 95  2.88115        17.100
 96  2.89289        16.500
 97  2.90508        15.900
 98  2.91779        15.300
 99  2.92994        14.750
100  2.94259        14.200
101  2.95580        13.650
102  2.96835        13.150
103  2.98146        12.650
104  2.99520        12.150
105  3.00962        11.650
106  3.02480        11.150
107  3.03920        10.700
108  3.05433        10.250
109  3.07032         9.800
110  3.08534         9.400
111  3.10117         9.000
112  3.11792         8.600
113  3.13572         8.200
114  3.15470         7.800
115  3.17242         7.450
116  3.19125         7.100
117  3.21140         6.750
118  3.23303         6.400
119  3.25636         6.050
120  3.27869         5.740
121  3.30196         5.440
122  3.32712         5.140
123  3.35263         4.860
124  3.38031         4.580
125  3.40838         4.320
126  3.43900         4.060
127  3.46475         3.860
128  3.48815         3.690
129  3.51322         3.520
130  3.53859         3.360
131  3.56582         3.200
132  3.59525         3.040
133  3.62513         2.890
134  3.65750         2.740
135  3.69041         2.600
136  3.72620         2.460
137  3.76256         2.330
138  3.80225         2.200
139  3.84594         2.070
140  3.89041         1.950
141  3.93935         1.830
142  3.99376         1.710
143  4.04944         1.600
144  4.10586         1.500
145  4.16326         1.410
146  4.17064         1.400
