Sensor Model:   CX-1050-CU-1.4L
Serial Number:  X71811
Data Format:    4      (Log Ohms/Kelvin)
SetPoint Limit: 325.0      (Kelvin)
Temperature coefficient:  1 (Negative)
Number of Breakpoints:   147

No.   Units      Temperature (K)

  1  1.87940       325.000
  2  1.88697       319.000
  3  1.89406       313.500
  4  1.90130       308.000
  5  1.90869       302.500
  6  1.91625       297.000
  7  1.92397       291.500
  8  1.93186       286.000
  9  1.93993       280.500
 10  1.94819       275.000
 11  1.95663       269.500
 12  1.96527       264.000
 13  1.97411       258.500
 14  1.98317       253.000
 15  1.99244       247.500
 16  2.00107       242.500
 17  2.00989       237.500
 18  2.01891       232.500
 19  2.02814       227.500
 20  2.03758       222.500
 21  2.04724       217.500
 22  2.05714       212.500
 23  2.06728       207.500
 24  2.07767       202.500
 25  2.08831       197.500
 26  2.09923       192.500
 27  2.11044       187.500
 28  2.12194       182.500
 29  2.13256       178.000
 30  2.14343       173.500
 31  2.15458       169.000
 32  2.16601       164.500
 33  2.17774       160.000
 34  2.18979       155.500
 35  2.20216       151.000
 36  2.21488       146.500
 37  2.22797       142.000
 38  2.24144       137.500
 39  2.25377       133.500
 40  2.26643       129.500
 41  2.27945       125.500
 42  2.29285       121.500
 43  2.30666       117.500
 44  2.32090       113.500
 45  2.33560       109.500
 46  2.35080       105.500
 47  2.36454       102.000
 48  2.37464        99.500
 49  2.38494        97.000
 50  2.39549        94.500
 51  2.40630        92.000
 52  2.41739        89.500
 53  2.42876        87.000
 54  2.44044        84.500
 55  2.45244        82.000
 56  2.46479        79.500
 57  2.47750        77.000
 58  2.48796        75.000
 59  2.49867        73.000
 60  2.50966        71.000
 61  2.52095        69.000
 62  2.53254        67.000
 63  2.54447        65.000
 64  2.55674        63.000
 65  2.56939        61.000
 66  2.58243        59.000
 67  2.59590        57.000
 68  2.60842        55.200
 69  2.62131        53.400
 70  2.63463        51.600
 71  2.64839        49.800
 72  2.66263        48.000
 73  2.67738        46.200
 74  2.69269        44.400
 75  2.70680        42.800
 76  2.72140        41.200
 77  2.73751        39.500
 78  2.75328        37.900
 79  2.76865        36.400
 80  2.78461        34.900
 81  2.80124        33.400
 82  2.81741        32.000
 83  2.83425        30.600
 84  2.85183        29.200
 85  2.86891        27.900
 86  2.88674        26.600
 87  2.90543        25.300
 88  2.92354        24.100
 89  2.94253        22.900
 90  2.96254        21.700
 91  2.98190        20.600
 92  2.99762        19.750
 93  3.01010        19.100
 94  3.02301        18.450
 95  3.03641        17.800
 96  3.04926        17.200
 97  3.06259        16.600
 98  3.07646        16.000
 99  3.09092        15.400
100  3.10474        14.850
101  3.11914        14.300
102  3.13420        13.750
103  3.14853        13.250
104  3.16350        12.750
105  3.17918        12.250
106  3.19566        11.750
107  3.21125        11.300
108  3.22760        10.850
109  3.24483        10.400
110  3.26302         9.950
111  3.28229         9.500
112  3.30047         9.100
113  3.31968         8.700
114  3.34011         8.300
115  3.36190         7.900
116  3.38226         7.550
117  3.40391         7.200
118  3.42708         6.850
119  3.45197         6.500
120  3.47883         6.150
121  3.50624         5.820
122  3.53322         5.520
123  3.56237         5.220
124  3.59194         4.940
125  3.62404         4.660
126  3.65918         4.380
127  3.69501         4.120
128  3.72509         3.920
129  3.75243         3.750
130  3.78174         3.580
131  3.81137         3.420
132  3.84318         3.260
133  3.87754         3.100
134  3.91242         2.950
135  3.95018         2.800
136  3.98854         2.660
137  4.03022         2.520
138  4.07256         2.390
139  4.11873         2.260
140  4.16952         2.130
141  4.22118         2.010
142  4.27791         1.890
143  4.34079         1.770
144  4.40486         1.660
145  4.47597         1.550
146  4.54914         1.450
147  4.59066         1.400
