Sensor Model:   CX-1070-SD-4L
Serial Number:  X74254
Data Format:    4      (Log Ohms/Kelvin)
SetPoint Limit: 325.0      (Kelvin)
Temperature coefficient:  1 (Negative)
Number of Breakpoints:   129

No.   Units      Temperature (K)

  1  1.92324       325.000
  2  1.93156       319.000
  3  1.93934       313.500
  4  1.94729       308.000
  5  1.95541       302.500
  6  1.96371       297.000
  7  1.97219       291.500
  8  1.98086       286.000
  9  1.98972       280.500
 10  1.99879       275.000
 11  2.00806       269.500
 12  2.01754       264.000
 13  2.02725       258.500
 14  2.03719       253.000
 15  2.04737       247.500
 16  2.05685       242.500
 17  2.06652       237.500
 18  2.07643       232.500
 19  2.08656       227.500
 20  2.09692       222.500
 21  2.10754       217.500
 22  2.11840       212.500
 23  2.12954       207.500
 24  2.14095       202.500
 25  2.15265       197.500
 26  2.16465       192.500
 27  2.17697       187.500
 28  2.18962       182.500
 29  2.20130       178.000
 30  2.21326       173.500
 31  2.22553       169.000
 32  2.23812       164.500
 33  2.25104       160.000
 34  2.26431       155.500
 35  2.27795       151.000
 36  2.29198       146.500
 37  2.30641       142.000
 38  2.32127       137.500
 39  2.33488       133.500
 40  2.34885       129.500
 41  2.36323       125.500
 42  2.37804       121.500
 43  2.39331       117.500
 44  2.40907       113.500
 45  2.42535       109.500
 46  2.44007       106.000
 47  2.45522       102.500
 48  2.46861        99.500
 49  2.48005        97.000
 50  2.49176        94.500
 51  2.50377        92.000
 52  2.51607        89.500
 53  2.52871        87.000
 54  2.54168        84.500
 55  2.55503        82.000
 56  2.56875        79.500
 57  2.58005        77.500
 58  2.59160        75.500
 59  2.60345        73.500
 60  2.61561        71.500
 61  2.62810        69.500
 62  2.64093        67.500
 63  2.65413        65.500
 64  2.66772        63.500
 65  2.68172        61.500
 66  2.69690        59.400
 67  2.71033        57.600
 68  2.72416        55.800
 69  2.73843        54.000
 70  2.75316        52.200
 71  2.76838        50.400
 72  2.78414        48.600
 73  2.80046        46.800
 74  2.81550        45.200
 75  2.83104        43.600
 76  2.84714        42.000
 77  2.86383        40.400
 78  2.88117        38.800
 79  2.89807        37.300
 80  2.91563        35.800
 81  2.93390        34.300
 82  2.95168        32.900
 83  2.97018        31.500
 84  2.98951        30.100
 85  3.00825        28.800
 86  3.02782        27.500
 87  3.04832        26.200
 88  3.06817        25.000
 89  3.08895        23.800
 90  3.11083        22.600
 91  3.13196        21.500
 92  3.15421        20.400
 93  3.17126        19.600
 94  3.18562        18.950
 95  3.20051        18.300
 96  3.21599        17.650
 97  3.23085        17.050
 98  3.24628        16.450
 99  3.26237        15.850
100  3.27773        15.300
101  3.29373        14.750
102  3.31043        14.200
103  3.32791        13.650
104  3.34455        13.150
105  3.36195        12.650
106  3.38020        12.150
107  3.39940        11.650
108  3.41760        11.200
109  3.43671        10.750
110  3.45688        10.300
111  3.47822         9.850
112  3.49831         9.450
113  3.51952         9.050
114  3.54204         8.650
115  3.56601         8.250
116  3.59162         7.850
117  3.61560         7.500
118  3.64115         7.150
119  3.66855         6.800
120  3.69803         6.450
121  3.72990         6.100
122  3.76148         5.780
123  3.79351         5.480
124  3.82819         5.180
125  3.86344         4.900
126  3.90177         4.620
127  3.94077         4.360
128  3.98344         4.100
129  4.00142         4.000
130  4.35     2.5
131  4.75     1.6
132  5.3      1
