Sensor Model:   CX-1050-CU-1.4L
Serial Number:  X75239
Data Format:    4      (Log Ohms/Kelvin)
SetPoint Limit: 325.0      (Kelvin)
Temperature coefficient:  1 (Negative)
Number of Breakpoints:   147

No.   Units      Temperature (K)

  1  2.01896       325.000
  2  2.02647       319.000
  3  2.03349       313.500
  4  2.04065       308.000
  5  2.04796       302.500
  6  2.05543       297.000
  7  2.06305       291.500
  8  2.07083       286.000
  9  2.07879       280.500
 10  2.08691       275.000
 11  2.09522       269.500
 12  2.10372       264.000
 13  2.11240       258.500
 14  2.12129       253.000
 15  2.13039       247.500
 16  2.13971       242.000
 17  2.14925       236.500
 18  2.15813       231.500
 19  2.16720       226.500
 20  2.17648       221.500
 21  2.18598       216.500
 22  2.19570       211.500
 23  2.20565       206.500
 24  2.21584       201.500
 25  2.22629       196.500
 26  2.23699       191.500
 27  2.24797       186.500
 28  2.25924       181.500
 29  2.27080       176.500
 30  2.28148       172.000
 31  2.29242       167.500
 32  2.30363       163.000
 33  2.31514       158.500
 34  2.32695       154.000
 35  2.33908       149.500
 36  2.35154       145.000
 37  2.36437       140.500
 38  2.37757       136.000
 39  2.38964       132.000
 40  2.40204       128.000
 41  2.41480       124.000
 42  2.42792       120.000
 43  2.44145       116.000
 44  2.45541       112.000
 45  2.46981       108.000
 46  2.48283       104.500
 47  2.49624       101.000
 48  2.50808        98.000
 49  2.51820        95.500
 50  2.52856        93.000
 51  2.53917        90.500
 52  2.55005        88.000
 53  2.56123        85.500
 54  2.57270        83.000
 55  2.58451        80.500
 56  2.59665        78.000
 57  2.60664        76.000
 58  2.61687        74.000
 59  2.62736        72.000
 60  2.63814        70.000
 61  2.64920        68.000
 62  2.66058        66.000
 63  2.67228        64.000
 64  2.68434        62.000
 65  2.69676        60.000
 66  2.70829        58.200
 67  2.72016        56.400
 68  2.73239        54.600
 69  2.74501        52.800
 70  2.75804        51.000
 71  2.77153        49.200
 72  2.78549        47.400
 73  2.79996        45.600
 74  2.81330        44.000
 75  2.82710        42.400
 76  2.84141        40.800
 77  2.85626        39.200
 78  2.87073        37.700
 79  2.88574        36.200
 80  2.90137        34.700
 81  2.91765        33.200
 82  2.93351        31.800
 83  2.95003        30.400
 84  2.96732        29.000
 85  2.98411        27.700
 86  3.00167        26.400
 87  3.02011        25.100
 88  3.03800        23.900
 89  3.05680        22.700
 90  3.07495        21.600
 91  3.09405        20.500
 92  3.10870        19.700
 93  3.12101        19.050
 94  3.13379        18.400
 95  3.14705        17.750
 96  3.15979        17.150
 97  3.17301        16.550
 98  3.18679        15.950
 99  3.19994        15.400
100  3.21363        14.850
101  3.22792        14.300
102  3.24286        13.750
103  3.25708        13.250
104  3.27194        12.750
105  3.28753        12.250
106  3.30393        11.750
107  3.31946        11.300
108  3.33576        10.850
109  3.35295        10.400
110  3.37112         9.950
111  3.38822         9.550
112  3.40625         9.150
113  3.42537         8.750
114  3.44570         8.350
115  3.46740         7.950
116  3.48768         7.600
117  3.50926         7.250
118  3.53237         6.900
119  3.55719         6.550
120  3.58398         6.200
121  3.61220         5.860
122  3.63918         5.560
123  3.66833         5.260
124  3.69792         4.980
125  3.73004         4.700
126  3.76263         4.440
127  3.79818         4.180
128  3.82965         3.970
129  3.85694         3.800
130  3.88620         3.630
131  3.91581         3.470
132  3.94760         3.310
133  3.98197         3.150
134  4.01686         3.000
135  4.05464         2.850
136  4.09302         2.710
137  4.13469         2.570
138  4.18030         2.430
139  4.22674         2.300
140  4.27759         2.170
141  4.32929         2.050
142  4.38607         1.930
143  4.44904         1.810
144  4.51334         1.700
145  4.57846         1.600
146  4.65120         1.500
147  4.73292         1.400
