Sensor Model:   CX-1050-CU-1.4L
Serial Number:  X75237
Data Format:    4      (Log Ohms/Kelvin)
SetPoint Limit: 325.0      (Kelvin)
Temperature coefficient:  1 (Negative)
Number of Breakpoints:   146

No.   Units      Temperature (K)

  1  1.85143       325.000
  2  1.85859       319.000
  3  1.86529       313.500
  4  1.87214       308.000
  5  1.87914       302.500
  6  1.88630       297.000
  7  1.89361       291.500
  8  1.90109       286.000
  9  1.90874       280.500
 10  1.91657       275.000
 11  1.92458       269.500
 12  1.93278       264.000
 13  1.94117       258.500
 14  1.94977       253.000
 15  1.95777       248.000
 16  1.96594       243.000
 17  1.97430       238.000
 18  1.98285       233.000
 19  1.99160       228.000
 20  2.00055       223.000
 21  2.00971       218.000
 22  2.01909       213.000
 23  2.02870       208.000
 24  2.03855       203.000
 25  2.04864       198.000
 26  2.05898       193.000
 27  2.06959       188.000
 28  2.08048       183.000
 29  2.09165       178.000
 30  2.10197       173.500
 31  2.11254       169.000
 32  2.12337       164.500
 33  2.13448       160.000
 34  2.14589       155.500
 35  2.15759       151.000
 36  2.16961       146.500
 37  2.18197       142.000
 38  2.19469       137.500
 39  2.20777       133.000
 40  2.21975       129.000
 41  2.23204       125.000
 42  2.24469       121.000
 43  2.25770       117.000
 44  2.27111       113.000
 45  2.28494       109.000
 46  2.29922       105.000
 47  2.31398       101.000
 48  2.32542        98.000
 49  2.33516        95.500
 50  2.34514        93.000
 51  2.35535        90.500
 52  2.36581        88.000
 53  2.37654        85.500
 54  2.38755        83.000
 55  2.39886        80.500
 56  2.41048        78.000
 57  2.42245        75.500
 58  2.43229        73.500
 59  2.44235        71.500
 60  2.45268        69.500
 61  2.46327        67.500
 62  2.47416        65.500
 63  2.48534        63.500
 64  2.49685        61.500
 65  2.50930        59.400
 66  2.52154        57.400
 67  2.53417        55.400
 68  2.54590        53.600
 69  2.55798        51.800
 70  2.57046        50.000
 71  2.58335        48.200
 72  2.59668        46.400
 73  2.61049        44.600
 74  2.62481        42.800
 75  2.63802        41.200
 76  2.65255        39.500
 77  2.66676        37.900
 78  2.68152        36.300
 79  2.69590        34.800
 80  2.71085        33.300
 81  2.72641        31.800
 82  2.74157        30.400
 83  2.75735        29.000
 84  2.77385        27.600
 85  2.78989        26.300
 86  2.80667        25.000
 87  2.82292        23.800
 88  2.83994        22.600
 89  2.85787        21.400
 90  2.87520        20.300
 91  2.88844        19.500
 92  2.89957        18.850
 93  2.91110        18.200
 94  2.92307        17.550
 95  2.93454        16.950
 96  2.94643        16.350
 97  2.95882        15.750
 98  2.97172        15.150
 99  2.98406        14.600
100  2.99692        14.050
101  3.01036        13.500
102  3.02315        13.000
103  3.03653        12.500
104  3.05055        12.000
105  3.06529        11.500
106  3.07925        11.050
107  3.09390        10.600
108  3.10935        10.150
109  3.12568         9.700
110  3.14104         9.300
111  3.15724         8.900
112  3.17443         8.500
113  3.19270         8.100
114  3.21221         7.700
115  3.23047         7.350
116  3.24991         7.000
117  3.27073         6.650
118  3.29313         6.300
119  3.31808         5.940
120  3.34057         5.640
121  3.36480         5.340
122  3.39108         5.040
123  3.41777         4.760
124  3.44679         4.480
125  3.47630         4.220
126  3.50097         4.020
127  3.52332         3.850
128  3.54720         3.680
129  3.57280         3.510
130  3.59869         3.350
131  3.62651         3.190
132  3.65658         3.030
133  3.68713         2.880
134  3.71799         2.740
135  3.75142         2.600
136  3.78788         2.460
137  3.82491         2.330
138  3.86536         2.200
139  3.90988         2.070
140  3.95517         1.950
141  4.00495         1.830
142  4.06018         1.710
143  4.11654         1.600
144  4.17348         1.500
145  4.23148         1.410
146  4.23898         1.400
