Sensor Model:   CX-1050-CU-1.4L
Serial Number:  X75608
Data Format:    4      (Log Ohms/Kelvin)
SetPoint Limit: 325.0      (Kelvin)
Temperature coefficient:  1 (Negative)
Number of Breakpoints:   148

No.   Units      Temperature (K)

  1  1.83398       325.000
  2  1.84238       319.000
  3  1.85025       313.500
  4  1.85829       308.000
  5  1.86651       302.500
  6  1.87491       297.000
  7  1.88349       291.500
  8  1.89228       286.000
  9  1.90126       280.500
 10  1.91045       275.000
 11  1.91986       269.500
 12  1.92949       264.000
 13  1.93935       258.500
 14  1.94852       253.500
 15  1.95789       248.500
 16  1.96748       243.500
 17  1.97728       238.500
 18  1.98731       233.500
 19  1.99758       228.500
 20  2.00808       223.500
 21  2.01884       218.500
 22  2.02986       213.500
 23  2.04115       208.500
 24  2.05272       203.500
 25  2.06459       198.500
 26  2.07676       193.500
 27  2.08926       188.500
 28  2.10080       184.000
 29  2.11261       179.500
 30  2.12472       175.000
 31  2.13713       170.500
 32  2.14987       166.000
 33  2.16295       161.500
 34  2.17638       157.000
 35  2.19019       152.500
 36  2.20438       148.000
 37  2.21899       143.500
 38  2.23403       139.000
 39  2.24781       135.000
 40  2.26195       131.000
 41  2.27650       127.000
 42  2.29148       123.000
 43  2.30693       119.000
 44  2.32285       115.000
 45  2.33930       111.000
 46  2.35631       107.000
 47  2.37169       103.500
 48  2.38526       100.500
 49  2.39686        98.000
 50  2.40873        95.500
 51  2.42089        93.000
 52  2.43336        90.500
 53  2.44616        88.000
 54  2.45930        85.500
 55  2.47282        83.000
 56  2.48671        80.500
 57  2.50102        78.000
 58  2.51279        76.000
 59  2.52483        74.000
 60  2.53720        72.000
 61  2.54990        70.000
 62  2.56295        68.000
 63  2.57636        66.000
 64  2.59017        64.000
 65  2.60440        62.000
 66  2.61907        60.000
 67  2.63268        58.200
 68  2.64669        56.400
 69  2.66114        54.600
 70  2.67605        52.800
 71  2.69145        51.000
 72  2.70738        49.200
 73  2.72388        47.400
 74  2.74098        45.600
 75  2.75675        44.000
 76  2.77306        42.400
 77  2.78997        40.800
 78  2.80752        39.200
 79  2.82461        37.700
 80  2.84235        36.200
 81  2.86082        34.700
 82  2.88006        33.200
 83  2.89879        31.800
 84  2.91832        30.400
 85  2.93873        29.000
 86  2.95857        27.700
 87  2.97932        26.400
 88  3.00108        25.100
 89  3.02220        23.900
 90  3.04437        22.700
 91  3.06577        21.600
 92  3.08828        20.500
 93  3.10551        19.700
 94  3.12000        19.050
 95  3.13502        18.400
 96  3.15061        17.750
 97  3.16557        17.150
 98  3.18109        16.550
 99  3.19725        15.950
100  3.21268        15.400
101  3.22873        14.850
102  3.24548        14.300
103  3.26299        13.750
104  3.27964        13.250
105  3.29704        12.750
106  3.31528        12.250
107  3.33445        11.750
108  3.35260        11.300
109  3.37163        10.850
110  3.39169        10.400
111  3.41288         9.950
112  3.43280         9.550
113  3.45379         9.150
114  3.47604         8.750
115  3.49967         8.350
116  3.52487         7.950
117  3.54842         7.600
118  3.57345         7.250
119  3.60025         6.900
120  3.62901         6.550
121  3.66005         6.200
122  3.69270         5.860
123  3.72392         5.560
124  3.75764         5.260
125  3.79184         4.980
126  3.82894         4.700
127  3.86952         4.420
128  3.91088         4.160
129  3.94735         3.950
130  3.97900         3.780
131  4.01288         3.610
132  4.04931         3.440
133  4.08628         3.280
134  4.12611         3.120
135  4.16655         2.970
136  4.21029         2.820
137  4.25471         2.680
138  4.30294         2.540
139  4.35576         2.400
140  4.40960         2.270
141  4.46861         2.140
142  4.53379         2.010
143  4.60031         1.890
144  4.67371         1.770
145  4.74842         1.660
146  4.83107         1.550
147  4.91592         1.450
148  4.96399         1.400
