Sensor Model:   CX-1050-CU-1.4L
Serial Number:  X75610
Data Format:    4      (Log Ohms/Kelvin)
SetPoint Limit: 325.0      (Kelvin)
Temperature coefficient:  1 (Negative)
Number of Breakpoints:   147

No.   Units      Temperature (K)

  1  1.75662       325.000
  2  1.76452       319.000
  3  1.77192       313.500
  4  1.77949       308.000
  5  1.78721       302.500
  6  1.79511       297.000
  7  1.80319       291.500
  8  1.81145       286.000
  9  1.81990       280.500
 10  1.82854       275.000
 11  1.83738       269.500
 12  1.84643       264.000
 13  1.85570       258.500
 14  1.86518       253.000
 15  1.87401       248.000
 16  1.88304       243.000
 17  1.89226       238.000
 18  1.90170       233.000
 19  1.91136       228.000
 20  1.92124       223.000
 21  1.93136       218.000
 22  1.94172       213.000
 23  1.95234       208.000
 24  1.96322       203.000
 25  1.97437       198.000
 26  1.98581       193.000
 27  1.99755       188.000
 28  2.00959       183.000
 29  2.02072       178.500
 30  2.03211       174.000
 31  2.04378       169.500
 32  2.05576       165.000
 33  2.06804       160.500
 34  2.08066       156.000
 35  2.09361       151.500
 36  2.10693       147.000
 37  2.12062       142.500
 38  2.13472       138.000
 39  2.14761       134.000
 40  2.16085       130.000
 41  2.17447       126.000
 42  2.18848       122.000
 43  2.20292       118.000
 44  2.21781       114.000
 45  2.23317       110.000
 46  2.24905       106.000
 47  2.26341       102.500
 48  2.27395       100.000
 49  2.28471        97.500
 50  2.29573        95.000
 51  2.30701        92.500
 52  2.31857        90.000
 53  2.33043        87.500
 54  2.34261        85.000
 55  2.35512        82.500
 56  2.36798        80.000
 57  2.38121        77.500
 58  2.39209        75.500
 59  2.40323        73.500
 60  2.41465        71.500
 61  2.42638        69.500
 62  2.43842        67.500
 63  2.45080        65.500
 64  2.46354        63.500
 65  2.47666        61.500
 66  2.49087        59.400
 67  2.50484        57.400
 68  2.51929        55.400
 69  2.53272        53.600
 70  2.54657        51.800
 71  2.56088        50.000
 72  2.57567        48.200
 73  2.59100        46.400
 74  2.60689        44.600
 75  2.62153        43.000
 76  2.63668        41.400
 77  2.65338        39.700
 78  2.66972        38.100
 79  2.68672        36.500
 80  2.70330        35.000
 81  2.72054        33.500
 82  2.73852        32.000
 83  2.75604        30.600
 84  2.77431        29.200
 85  2.79342        27.800
 86  2.81201        26.500
 87  2.83147        25.200
 88  2.85033        24.000
 89  2.87010        22.800
 90  2.89091        21.600
 91  2.91104        20.500
 92  2.92641        19.700
 93  2.93933        19.050
 94  2.95270        18.400
 95  2.96658        17.750
 96  2.98100        17.100
 97  2.99484        16.500
 98  3.00923        15.900
 99  3.02422        15.300
100  3.03855        14.750
101  3.05348        14.200
102  3.06909        13.650
103  3.08543        13.100
104  3.10101        12.600
105  3.11731        12.100
106  3.13443        11.600
107  3.15064        11.150
108  3.16764        10.700
109  3.18555        10.250
110  3.20447         9.800
111  3.22225         9.400
112  3.24099         9.000
113  3.26084         8.600
114  3.28193         8.200
115  3.30443         7.800
116  3.32546         7.450
117  3.34781         7.100
118  3.37174         6.750
119  3.39744         6.400
120  3.42517         6.050
121  3.45172         5.740
122  3.47941         5.440
123  3.50937         5.140
124  3.53974         4.860
125  3.57270         4.580
126  3.60613         4.320
127  3.64259         4.060
128  3.67327         3.860
129  3.70114         3.690
130  3.73100         3.520
131  3.76119         3.360
132  3.79362         3.200
133  3.82866         3.040
134  3.86425         2.890
135  3.90279         2.740
136  3.94199         2.600
137  3.98462         2.460
138  4.02796         2.330
139  4.07525         2.200
140  4.12730         2.070
141  4.18023         1.950
142  4.23838         1.830
143  4.30286         1.710
144  4.36861         1.600
145  4.43497         1.500
146  4.50244         1.410
147  4.51114         1.400
