Sensor Model:   CX-1050-CU-1.4L
Serial Number:  X75609
Data Format:    4      (Log Ohms/Kelvin)
SetPoint Limit: 325.0      (Kelvin)
Temperature coefficient:  1 (Negative)
Number of Breakpoints:   148

No.   Units      Temperature (K)

  1  1.83550       325.000
  2  1.84399       319.000
  3  1.85194       313.500
  4  1.86006       308.000
  5  1.86836       302.500
  6  1.87684       297.000
  7  1.88551       291.500
  8  1.89437       286.000
  9  1.90343       280.500
 10  1.91270       275.000
 11  1.92219       269.500
 12  1.93189       264.000
 13  1.94183       258.500
 14  1.95201       253.000
 15  1.96148       248.000
 16  1.97116       243.000
 17  1.98106       238.000
 18  1.99119       233.000
 19  2.00155       228.000
 20  2.01215       223.000
 21  2.02301       218.000
 22  2.03413       213.000
 23  2.04553       208.000
 24  2.05721       203.000
 25  2.06918       198.000
 26  2.08147       193.000
 27  2.09408       188.000
 28  2.10572       183.500
 29  2.11764       179.000
 30  2.12986       174.500
 31  2.14238       170.000
 32  2.15524       165.500
 33  2.16843       161.000
 34  2.18198       156.500
 35  2.19591       152.000
 36  2.21023       147.500
 37  2.22497       143.000
 38  2.24015       138.500
 39  2.25405       134.500
 40  2.26832       130.500
 41  2.28301       126.500
 42  2.29813       122.500
 43  2.31371       118.500
 44  2.32979       114.500
 45  2.34639       110.500
 46  2.36356       106.500
 47  2.37909       103.000
 48  2.39050       100.500
 49  2.40215        98.000
 50  2.41408        95.500
 51  2.42631        93.000
 52  2.43885        90.500
 53  2.45172        88.000
 54  2.46493        85.500
 55  2.47852        83.000
 56  2.49249        80.500
 57  2.50689        78.000
 58  2.51873        76.000
 59  2.53086        74.000
 60  2.54330        72.000
 61  2.55607        70.000
 62  2.56919        68.000
 63  2.58268        66.000
 64  2.59657        64.000
 65  2.61088        62.000
 66  2.62564        60.000
 67  2.63933        58.200
 68  2.65343        56.400
 69  2.66796        54.600
 70  2.68296        52.800
 71  2.69846        51.000
 72  2.71449        49.200
 73  2.73109        47.400
 74  2.74830        45.600
 75  2.76417        44.000
 76  2.78058        42.400
 77  2.79760        40.800
 78  2.81526        39.200
 79  2.83246        37.700
 80  2.85032        36.200
 81  2.86890        34.700
 82  2.88827        33.200
 83  2.90713        31.800
 84  2.92678        30.400
 85  2.94733        29.000
 86  2.96731        27.700
 87  2.98819        26.400
 88  3.01011        25.100
 89  3.03138        23.900
 90  3.05371        22.700
 91  3.07527        21.600
 92  3.09795        20.500
 93  3.11532        19.700
 94  3.12992        19.050
 95  3.14506        18.400
 96  3.16077        17.750
 97  3.17585        17.150
 98  3.19150        16.550
 99  3.20779        15.950
100  3.22335        15.400
101  3.23953        14.850
102  3.25642        14.300
103  3.27407        13.750
104  3.29086        13.250
105  3.30840        12.750
106  3.32680        12.250
107  3.34612        11.750
108  3.36442        11.300
109  3.38362        10.850
110  3.40385        10.400
111  3.42522         9.950
112  3.44531         9.550
113  3.46649         9.150
114  3.48893         8.750
115  3.51277         8.350
116  3.53820         7.950
117  3.56196         7.600
118  3.58723         7.250
119  3.61427         6.900
120  3.64330         6.550
121  3.67463         6.200
122  3.70761         5.860
123  3.73913         5.560
124  3.77318         5.260
125  3.80773         4.980
126  3.84520         4.700
127  3.88620         4.420
128  3.92799         4.160
129  3.96485         3.950
130  3.99684         3.780
131  4.03108         3.610
132  4.06791         3.440
133  4.10527         3.280
134  4.14554         3.120
135  4.18642         2.970
136  4.23065         2.820
137  4.27556         2.680
138  4.32434         2.540
139  4.37775         2.400
140  4.43220         2.270
141  4.49190         2.140
142  4.55785         2.010
143  4.62517         1.890
144  4.69946         1.770
145  4.77508         1.660
146  4.85873         1.550
147  4.94457         1.450
148  4.99316         1.400
