Sensor Model:   CX-1050-AA-1.4L
Serial Number:  X77456
Data Format:    4      (Log Ohms/Kelvin)
SetPoint Limit: 325.0      (Kelvin)
Temperature coefficient:  1 (Negative)
Number of Breakpoints:   148

No.   Units      Temperature (K)

  1  2.02987       325.000
  2  2.03741       319.000
  3  2.04448       313.500
  4  2.05169       308.000
  5  2.05906       302.500
  6  2.06658       297.000
  7  2.07426       291.500
  8  2.08211       286.000
  9  2.09014       280.500
 10  2.09834       275.000
 11  2.10672       269.500
 12  2.11529       264.000
 13  2.12406       258.500
 14  2.13304       253.000
 15  2.14222       247.500
 16  2.15163       242.000
 17  2.16126       236.500
 18  2.17022       231.500
 19  2.17939       226.500
 20  2.18876       221.500
 21  2.19835       216.500
 22  2.20817       211.500
 23  2.21822       206.500
 24  2.22852       201.500
 25  2.23908       196.500
 26  2.24990       191.500
 27  2.26100       186.500
 28  2.27239       181.500
 29  2.28409       176.500
 30  2.29489       172.000
 31  2.30596       167.500
 32  2.31732       163.000
 33  2.32896       158.500
 34  2.34092       154.000
 35  2.35321       149.500
 36  2.36584       145.000
 37  2.37884       140.500
 38  2.39222       136.000
 39  2.40446       132.000
 40  2.41703       128.000
 41  2.42996       124.000
 42  2.44328       120.000
 43  2.45700       116.000
 44  2.47116       112.000
 45  2.48578       108.000
 46  2.49900       104.500
 47  2.51261       101.000
 48  2.52464        98.000
 49  2.53492        95.500
 50  2.54545        93.000
 51  2.55624        90.500
 52  2.56730        88.000
 53  2.57866        85.500
 54  2.59033        83.000
 55  2.60233        80.500
 56  2.61468        78.000
 57  2.62485        76.000
 58  2.63525        74.000
 59  2.64593        72.000
 60  2.65689        70.000
 61  2.66815        68.000
 62  2.67973        66.000
 63  2.69164        64.000
 64  2.70392        62.000
 65  2.71658        60.000
 66  2.72832        58.200
 67  2.74042        56.400
 68  2.75289        54.600
 69  2.76576        52.800
 70  2.77905        51.000
 71  2.79281        49.200
 72  2.80705        47.400
 73  2.82182        45.600
 74  2.83545        44.000
 75  2.84953        42.400
 76  2.86415        40.800
 77  2.87932        39.200
 78  2.89410        37.700
 79  2.90945        36.200
 80  2.92543        34.700
 81  2.94097        33.300
 82  2.95713        31.900
 83  2.97401        30.500
 84  2.99037        29.200
 85  3.00745        27.900
 86  3.02533        26.600
 87  3.04264        25.400
 88  3.06075        24.200
 89  3.07980        23.000
 90  3.09818        21.900
 91  3.11752        20.800
 92  3.13326        19.950
 93  3.14575        19.300
 94  3.15869        18.650
 95  3.17213        18.000
 96  3.18502        17.400
 97  3.19840        16.800
 98  3.21234        16.200
 99  3.22686        15.600
100  3.24077        15.050
101  3.25527        14.500
102  3.27042        13.950
103  3.28482        13.450
104  3.29986        12.950
105  3.31563        12.450
106  3.33221        11.950
107  3.34790        11.500
108  3.36435        11.050
109  3.38168        10.600
110  3.39998        10.150
111  3.41937         9.700
112  3.43766         9.300
113  3.45697         8.900
114  3.47751         8.500
115  3.49940         8.100
116  3.51984         7.750
117  3.54156         7.400
118  3.56480         7.050
119  3.58971         6.700
120  3.61656         6.350
121  3.64140         6.050
122  3.66708         5.760
123  3.69577         5.460
124  3.72689         5.160
125  3.75852         4.880
126  3.79295         4.600
127  3.82797         4.340
128  3.86629         4.080
129  3.89863         3.880
130  3.92809         3.710
131  3.95973         3.540
132  3.99183         3.380
133  4.02639         3.220
134  4.06145         3.070
135  4.09932         2.920
136  4.14052         2.770
137  4.18245         2.630
138  4.22812         2.490
139  4.27458         2.360
140  4.32531         2.230
141  4.38118         2.100
142  4.43814         1.980
143  4.50100         1.860
144  4.56509         1.750
145  4.62965         1.650
146  4.70162         1.550
147  4.78227         1.450
148  4.82680         1.400
