Sensor Model:   CX-1050-AA-1.4L
Serial Number:  X77457
Data Format:    4      (Log Ohms/Kelvin)
SetPoint Limit: 325.0      (Kelvin)
Temperature coefficient:  1 (Negative)
Number of Breakpoints:   148

No.   Units      Temperature (K)

  1  2.02691       325.000
  2  2.03442       319.000
  3  2.04144       313.500
  4  2.04861       308.000
  5  2.05593       302.500
  6  2.06340       297.000
  7  2.07103       291.500
  8  2.07883       286.000
  9  2.08679       280.500
 10  2.09493       275.000
 11  2.10325       269.500
 12  2.11176       264.000
 13  2.12047       258.500
 14  2.12938       253.000
 15  2.13850       247.500
 16  2.14783       242.000
 17  2.15652       237.000
 18  2.16540       232.000
 19  2.17448       227.000
 20  2.18376       222.000
 21  2.19326       217.000
 22  2.20299       212.000
 23  2.21295       207.000
 24  2.22316       202.000
 25  2.23362       197.000
 26  2.24434       192.000
 27  2.25534       187.000
 28  2.26662       182.000
 29  2.27821       177.000
 30  2.28891       172.500
 31  2.29987       168.000
 32  2.31112       163.500
 33  2.32265       159.000
 34  2.33449       154.500
 35  2.34666       150.000
 36  2.35916       145.500
 37  2.37202       141.000
 38  2.38526       136.500
 39  2.39738       132.500
 40  2.40981       128.500
 41  2.42261       124.500
 42  2.43578       120.500
 43  2.44936       116.500
 44  2.46336       112.500
 45  2.47783       108.500
 46  2.49089       105.000
 47  2.50435       101.500
 48  2.51624        98.500
 49  2.52640        96.000
 50  2.53680        93.500
 51  2.54746        91.000
 52  2.55838        88.500
 53  2.56960        86.000
 54  2.58112        83.500
 55  2.59297        81.000
 56  2.60516        78.500
 57  2.61518        76.500
 58  2.62544        74.500
 59  2.63597        72.500
 60  2.64678        70.500
 61  2.65787        68.500
 62  2.66928        66.500
 63  2.68102        64.500
 64  2.69311        62.500
 65  2.70558        60.500
 66  2.71778        58.600
 67  2.72971        56.800
 68  2.74199        55.000
 69  2.75467        53.200
 70  2.76777        51.400
 71  2.78131        49.600
 72  2.79533        47.800
 73  2.80987        46.000
 74  2.82327        44.400
 75  2.83712        42.800
 76  2.85149        41.200
 77  2.86734        39.500
 78  2.88288        37.900
 79  2.89804        36.400
 80  2.91380        34.900
 81  2.93022        33.400
 82  2.94622        32.000
 83  2.96288        30.600
 84  2.98031        29.200
 85  2.99725        27.900
 86  3.01497        26.600
 87  3.03356        25.300
 88  3.05160        24.100
 89  3.07055        22.900
 90  3.08885        21.800
 91  3.10810        20.700
 92  3.12379        19.850
 93  3.13623        19.200
 94  3.14912        18.550
 95  3.16252        17.900
 96  3.17537        17.300
 97  3.18872        16.700
 98  3.20261        16.100
 99  3.21710        15.500
100  3.23096        14.950
101  3.24541        14.400
102  3.26052        13.850
103  3.27490        13.350
104  3.28992        12.850
105  3.30569        12.350
106  3.32226        11.850
107  3.33796        11.400
108  3.35442        10.950
109  3.37178        10.500
110  3.39013        10.050
111  3.40738         9.650
112  3.42556         9.250
113  3.44483         8.850
114  3.46530         8.450
115  3.48714         8.050
116  3.50754         7.700
117  3.52922         7.350
118  3.55243         7.000
119  3.57732         6.650
120  3.60417         6.300
121  3.63414         5.940
122  3.66123         5.640
123  3.69049         5.340
124  3.72014         5.060
125  3.75230         4.780
126  3.78744         4.500
127  3.82325         4.240
128  3.85634         4.020
129  3.88555         3.840
130  3.91512         3.670
131  3.94501         3.510
132  3.97709         3.350
133  4.01173         3.190
134  4.04688         3.040
135  4.08488         2.890
136  4.12343         2.750
137  4.16524         2.610
138  4.21093         2.470
139  4.25739         2.340
140  4.30818         2.210
141  4.36414         2.080
142  4.42126         1.960
143  4.48433         1.840
144  4.54871         1.730
145  4.61368         1.630
146  4.68618         1.530
147  4.76742         1.430
148  4.79448         1.400
