Sensor Model:   CX-1050-CU-HT-1.4L
Serial Number:  X85571
Data Format:    4      (Log Ohms/Kelvin)
SetPoint Limit: 325.0      (Kelvin)
Temperature coefficient:  1 (Negative)
Number of Breakpoints:   144

No.   Units      Temperature (K)

  1  1.83800       325.000
  2  1.84470       319.000
  3  1.85098       313.500
  4  1.85739       308.000
  5  1.86393       302.500
  6  1.87061       297.000
  7  1.87744       291.500
  8  1.88443       286.000
  9  1.89156       280.500
 10  1.89885       275.000
 11  1.90631       269.500
 12  1.91395       264.000
 13  1.92175       258.500
 14  1.92974       253.000
 15  1.93792       247.500
 16  1.94629       242.000
 17  1.95486       236.500
 18  1.96285       231.500
 19  1.97100       226.500
 20  1.97934       221.500
 21  1.98787       216.500
 22  1.99660       211.500
 23  2.00554       206.500
 24  2.01469       201.500
 25  2.02406       196.500
 26  2.03366       191.500
 27  2.04350       186.500
 28  2.05359       181.500
 29  2.06394       176.500
 30  2.07457       171.500
 31  2.08438       167.000
 32  2.09442       162.500
 33  2.10472       158.000
 34  2.11528       153.500
 35  2.12612       149.000
 36  2.13724       144.500
 37  2.14867       140.000
 38  2.16043       135.500
 39  2.17252       131.000
 40  2.18497       126.500
 41  2.19636       122.500
 42  2.20807       118.500
 43  2.22011       114.500
 44  2.23252       110.500
 45  2.24531       106.500
 46  2.25851       102.500
 47  2.26873        99.500
 48  2.27742        97.000
 49  2.28631        94.500
 50  2.29540        92.000
 51  2.30471        89.500
 52  2.31424        87.000
 53  2.32401        84.500
 54  2.33403        82.000
 55  2.34432        79.500
 56  2.35489        77.000
 57  2.36577        74.500
 58  2.37698        72.000
 59  2.38620        70.000
 60  2.39564        68.000
 61  2.40534        66.000
 62  2.41529        64.000
 63  2.42553        62.000
 64  2.43713        59.800
 65  2.44800        57.800
 66  2.45922        55.800
 67  2.47080        53.800
 68  2.48155        52.000
 69  2.49263        50.200
 70  2.50407        48.400
 71  2.51589        46.600
 72  2.52812        44.800
 73  2.54079        43.000
 74  2.55247        41.400
 75  2.56529        39.700
 76  2.57782        38.100
 77  2.59081        36.500
 78  2.60432        34.900
 79  2.61749        33.400
 80  2.63119        31.900
 81  2.64547        30.400
 82  2.65938        29.000
 83  2.67390        27.600
 84  2.68800        26.300
 85  2.70274        25.000
 86  2.71821        23.700
 87  2.73322        22.500
 88  2.74767        21.400
 89  2.76284        20.300
 90  2.77443        19.500
 91  2.78418        18.850
 92  2.79427        18.200
 93  2.80475        17.550
 94  2.81479        16.950
 95  2.82521        16.350
 96  2.83605        15.750
 97  2.84641        15.200
 98  2.85719        14.650
 99  2.86842        14.100
100  2.88014        13.550
101  2.89130        13.050
102  2.90297        12.550
103  2.91522        12.050
104  2.92808        11.550
105  2.94027        11.100
106  2.95306        10.650
107  2.96654        10.200
108  2.98079         9.750
109  2.99420         9.350
110  3.00834         8.950
111  3.02334         8.550
112  3.03928         8.150
113  3.05629         7.750
114  3.07221         7.400
115  3.08915         7.050
116  3.10730         6.700
117  3.12680         6.350
118  3.14787         6.000
119  3.16873         5.680
120  3.18987         5.380
121  3.21273         5.080
122  3.23596         4.800
123  3.26118         4.520
124  3.28680         4.260
125  3.31255         4.020
126  3.33468         3.830
127  3.35583         3.660
128  3.37850         3.490
129  3.40144         3.330
130  3.42607         3.170
131  3.45268         3.010
132  3.47972         2.860
133  3.50702         2.720
134  3.53658         2.580
135  3.56879         2.440
136  3.60150         2.310
137  3.63720         2.180
138  3.67648         2.050
139  3.71643         1.930
140  3.76035         1.810
141  3.80913         1.690
142  3.85901         1.580
143  3.90963         1.480
144  3.95541         1.400
