Sensor Model:   CX-1050-CU-HT-1.4L
Serial Number:  X85569
Data Format:    4      (Log Ohms/Kelvin)
SetPoint Limit: 325.0      (Kelvin)
Temperature coefficient:  1 (Negative)
Number of Breakpoints:   148

No.   Units      Temperature (K)

  1  1.87225       325.000
  2  1.88038       319.000
  3  1.88799       313.500
  4  1.89577       308.000
  5  1.90371       302.500
  6  1.91183       297.000
  7  1.92013       291.500
  8  1.92862       286.000
  9  1.93729       280.500
 10  1.94617       275.000
 11  1.95525       269.500
 12  1.96455       264.000
 13  1.97407       258.500
 14  1.98382       253.000
 15  1.99290       248.000
 16  2.00217       243.000
 17  2.01165       238.000
 18  2.02136       233.000
 19  2.03129       228.000
 20  2.04145       223.000
 21  2.05186       218.000
 22  2.06252       213.000
 23  2.07345       208.000
 24  2.08465       203.000
 25  2.09613       198.000
 26  2.10791       193.000
 27  2.12000       188.000
 28  2.13117       183.500
 29  2.14260       179.000
 30  2.15432       174.500
 31  2.16633       170.000
 32  2.17866       165.500
 33  2.19131       161.000
 34  2.20430       156.500
 35  2.21766       152.000
 36  2.23139       147.500
 37  2.24552       143.000
 38  2.26007       138.500
 39  2.27339       134.500
 40  2.28706       130.500
 41  2.30114       126.500
 42  2.31563       122.500
 43  2.33056       118.500
 44  2.34597       114.500
 45  2.36187       110.500
 46  2.37832       106.500
 47  2.39320       103.000
 48  2.40412       100.500
 49  2.41527        98.000
 50  2.42669        95.500
 51  2.43839        93.000
 52  2.45039        90.500
 53  2.46270        88.000
 54  2.47534        85.500
 55  2.48832        83.000
 56  2.50168        80.500
 57  2.51542        78.000
 58  2.52673        76.000
 59  2.53831        74.000
 60  2.55018        72.000
 61  2.56237        70.000
 62  2.57489        68.000
 63  2.58777        66.000
 64  2.60102        64.000
 65  2.61467        62.000
 66  2.62874        60.000
 67  2.64179        58.200
 68  2.65522        56.400
 69  2.66908        54.600
 70  2.68336        52.800
 71  2.69813        51.000
 72  2.71339        49.200
 73  2.72919        47.400
 74  2.74557        45.600
 75  2.76066        44.000
 76  2.77627        42.400
 77  2.79244        40.800
 78  2.80923        39.200
 79  2.82557        37.700
 80  2.84253        36.200
 81  2.86017        34.700
 82  2.87855        33.200
 83  2.89644        31.800
 84  2.91507        30.400
 85  2.93456        29.000
 86  2.95349        27.700
 87  2.97327        26.400
 88  2.99404        25.100
 89  3.01419        23.900
 90  3.03533        22.700
 91  3.05576        21.600
 92  3.07723        20.500
 93  3.09369        19.700
 94  3.10752        19.050
 95  3.12187        18.400
 96  3.13677        17.750
 97  3.15106        17.150
 98  3.16590        16.550
 99  3.18135        15.950
100  3.19610        15.400
101  3.21145        14.850
102  3.22747        14.300
103  3.24421        13.750
104  3.26014        13.250
105  3.27678        12.750
106  3.29424        12.250
107  3.31259        11.750
108  3.32997        11.300
109  3.34821        10.850
110  3.36743        10.400
111  3.38775         9.950
112  3.40687         9.550
113  3.42702         9.150
114  3.44839         8.750
115  3.47110         8.350
116  3.49534         7.950
117  3.51799         7.600
118  3.54209         7.250
119  3.56789         6.900
120  3.59559         6.550
121  3.62549         6.200
122  3.65696         5.860
123  3.68705         5.560
124  3.71955         5.260
125  3.75253         4.980
126  3.78830         4.700
127  3.82745         4.420
128  3.86738         4.160
129  3.90262         3.950
130  3.93323         3.780
131  3.96602         3.610
132  3.99920         3.450
133  4.03484         3.290
134  4.07334         3.130
135  4.11243         2.980
136  4.15474         2.830
137  4.19769         2.690
138  4.24429         2.550
139  4.29525         2.410
140  4.34708         2.280
141  4.40377         2.150
142  4.46137         2.030
143  4.52462         1.910
144  4.59483         1.790
145  4.66663         1.680
146  4.73961         1.580
147  4.82116         1.480
148  4.89355         1.400
149  5.4             1.000
