Sensor Model:   CX-1050-CU-HT-1.4L
Serial Number:  X86023
Data Format:    4      (Log Ohms/Kelvin)
SetPoint Limit: 325.0      (Kelvin)
Temperature coefficient:  1 (Negative)
Number of Breakpoints:   143

No.   Units      Temperature (K)

  1  1.83242       325.000
  2  1.83944       319.000
  3  1.84600       313.500
  4  1.85270       308.000
  5  1.85954       302.500
  6  1.86651       297.000
  7  1.87363       291.500
  8  1.88091       286.000
  9  1.88833       280.500
 10  1.89592       275.000
 11  1.90368       269.500
 12  1.91160       264.000
 13  1.91970       258.500
 14  1.92799       253.000
 15  1.93646       247.500
 16  1.94513       242.000
 17  1.95400       236.500
 18  1.96308       231.000
 19  1.97238       225.500
 20  1.98190       220.000
 21  1.99077       215.000
 22  1.99982       210.000
 23  2.00909       205.000
 24  2.01857       200.000
 25  2.02827       195.000
 26  2.03821       190.000
 27  2.04838       185.000
 28  2.05881       180.000
 29  2.06949       175.000
 30  2.08044       170.000
 31  2.09168       165.000
 32  2.10322       160.000
 33  2.11388       155.500
 34  2.12479       151.000
 35  2.13599       146.500
 36  2.14747       142.000
 37  2.15927       137.500
 38  2.17138       133.000
 39  2.18384       128.500
 40  2.19666       124.000
 41  2.20840       120.000
 42  2.22044       116.000
 43  2.23283       112.000
 44  2.24559       108.000
 45  2.25874       104.000
 46  2.27060       100.500
 47  2.28104        97.500
 48  2.28994        95.000
 49  2.29903        92.500
 50  2.30832        90.000
 51  2.31783        87.500
 52  2.32757        85.000
 53  2.33756        82.500
 54  2.34780        80.000
 55  2.35832        77.500
 56  2.36914        75.000
 57  2.38025        72.500
 58  2.39170        70.000
 59  2.40113        68.000
 60  2.41077        66.000
 61  2.42067        64.000
 62  2.43084        62.000
 63  2.44236        59.800
 64  2.45314        57.800
 65  2.46426        55.800
 66  2.47573        53.800
 67  2.48757        51.800
 68  2.49858        50.000
 69  2.50992        48.200
 70  2.52164        46.400
 71  2.53376        44.600
 72  2.54631        42.800
 73  2.55932        41.000
 74  2.57207        39.300
 75  2.58450        37.700
 76  2.59739        36.100
 77  2.61079        34.500
 78  2.62384        33.000
 79  2.63740        31.500
 80  2.65154        30.000
 81  2.66530        28.600
 82  2.67965        27.200
 83  2.69359        25.900
 84  2.70816        24.600
 85  2.72345        23.300
 86  2.73829        22.100
 87  2.75258        21.000
 88  2.76483        20.100
 89  2.77473        19.400
 90  2.78424        18.750
 91  2.79408        18.100
 92  2.80429        17.450
 93  2.81490        16.800
 94  2.82509        16.200
 95  2.83568        15.600
 96  2.84671        15.000
 97  2.85726        14.450
 98  2.86826        13.900
 99  2.87977        13.350
100  2.89073        12.850
101  2.90217        12.350
102  2.91418        11.850
103  2.92681        11.350
104  2.93878        10.900
105  2.95135        10.450
106  2.96462        10.000
107  2.97866         9.550
108  2.99188         9.150
109  3.00584         8.750
110  3.02066         8.350
111  3.03644         7.950
112  3.05116         7.600
113  3.06679         7.250
114  3.08348         6.900
115  3.10136         6.550
116  3.12061         6.200
117  3.14081         5.860
118  3.16138         5.540
119  3.18226         5.240
120  3.20334         4.960
121  3.22616         4.680
122  3.25106         4.400
123  3.27637         4.140
124  3.29864         3.930
125  3.31911         3.750
126  3.33986         3.580
127  3.36078         3.420
128  3.38323         3.260
129  3.40743         3.100
130  3.43195         2.950
131  3.45843         2.800
132  3.48723         2.650
133  3.51653         2.510
134  3.54842         2.370
135  3.58084         2.240
136  3.61623         2.110
137  3.65526         1.980
138  3.69512         1.860
139  3.73549         1.750
140  3.78025         1.640
141  3.83062         1.530
142  3.88734         1.420
143  3.89898         1.400
