Sensor Model:   CX-1050-CU-HT-1.4L
Serial Number:  X86028
Data Format:    4      (Log Ohms/Kelvin)
SetPoint Limit: 325.0      (Kelvin)
Temperature coefficient:  1 (Negative)
Number of Breakpoints:   143

No.   Units      Temperature (K)

  1  1.81622       325.000
  2  1.82322       319.000
  3  1.82977       313.500
  4  1.83644       308.000
  5  1.84326       302.500
  6  1.85021       297.000
  7  1.85731       291.500
  8  1.86455       286.000
  9  1.87195       280.500
 10  1.87951       275.000
 11  1.88724       269.500
 12  1.89513       264.000
 13  1.90320       258.500
 14  1.91145       253.000
 15  1.91989       247.500
 16  1.92853       242.000
 17  1.93736       236.500
 18  1.94640       231.000
 19  1.95566       225.500
 20  1.96514       220.000
 21  1.97396       215.000
 22  1.98298       210.000
 23  1.99220       205.000
 24  2.00164       200.000
 25  2.01130       195.000
 26  2.02118       190.000
 27  2.03130       185.000
 28  2.04168       180.000
 29  2.05231       175.000
 30  2.06320       170.000
 31  2.07439       165.000
 32  2.08586       160.000
 33  2.09646       155.500
 34  2.10732       151.000
 35  2.11845       146.500
 36  2.12987       142.000
 37  2.14160       137.500
 38  2.15364       133.000
 39  2.16603       128.500
 40  2.17878       124.000
 41  2.19045       120.000
 42  2.20242       116.000
 43  2.21474       112.000
 44  2.22742       108.000
 45  2.24049       104.000
 46  2.25228       100.500
 47  2.26266        97.500
 48  2.27151        95.000
 49  2.28054        92.500
 50  2.28979        90.000
 51  2.29924        87.500
 52  2.30893        85.000
 53  2.31885        82.500
 54  2.32903        80.000
 55  2.33949        77.500
 56  2.35024        75.000
 57  2.36129        72.500
 58  2.37037        70.500
 59  2.37967        68.500
 60  2.38920        66.500
 61  2.39898        64.500
 62  2.40903        62.500
 63  2.41935        60.500
 64  2.42944        58.600
 65  2.44036        56.600
 66  2.45162        54.600
 67  2.46324        52.600
 68  2.47404        50.800
 69  2.48517        49.000
 70  2.49665        47.200
 71  2.50851        45.400
 72  2.52079        43.600
 73  2.53351        41.800
 74  2.54523        40.200
 75  2.55733        38.600
 76  2.56988        37.000
 77  2.58291        35.400
 78  2.59644        33.800
 79  2.60965        32.300
 80  2.62339        30.800
 81  2.63676        29.400
 82  2.65069        28.000
 83  2.66524        26.600
 84  2.67939        25.300
 85  2.69419        24.000
 86  2.70854        22.800
 87  2.72358        21.600
 88  2.73811        20.500
 89  2.74917        19.700
 90  2.75846        19.050
 91  2.76807        18.400
 92  2.77804        17.750
 93  2.78838        17.100
 94  2.79831        16.500
 95  2.80861        15.900
 96  2.81935        15.300
 97  2.82962        14.750
 98  2.84030        14.200
 99  2.85145        13.650
100  2.86204        13.150
101  2.87310        12.650
102  2.88469        12.150
103  2.89685        11.650
104  2.90966        11.150
105  2.92181        10.700
106  2.93458        10.250
107  2.94808         9.800
108  2.96077         9.400
109  2.97414         9.000
110  2.98830         8.600
111  3.00334         8.200
112  3.01938         7.800
113  3.03436         7.450
114  3.05028         7.100
115  3.06731         6.750
116  3.08559         6.400
117  3.10529         6.050
118  3.12413         5.740
119  3.14377         5.440
120  3.16497         5.140
121  3.18802         4.840
122  3.21150         4.560
123  3.23523         4.300
124  3.26113         4.040
125  3.28290         3.840
126  3.30269         3.670
127  3.32388         3.500
128  3.34532         3.340
129  3.36834         3.180
130  3.39322         3.020
131  3.41847         2.870
132  3.44579         2.720
133  3.47354         2.580
134  3.50366         2.440
135  3.53661         2.300
136  3.57017         2.170
137  3.60694         2.040
138  3.64442         1.920
139  3.68573         1.800
140  3.72787         1.690
141  3.77481         1.580
142  3.82770         1.470
143  3.86516         1.400
