Sensor Model:   CX-1050-CU-HT-1.4L
Serial Number:  X86021
Data Format:    4      (Log Ohms/Kelvin)
SetPoint Limit: 325.0      (Kelvin)
Temperature coefficient:  1 (Negative)
Number of Breakpoints:   143

No.   Units      Temperature (K)

  1  1.83326       325.000
  2  1.84021       319.000
  3  1.84671       313.500
  4  1.85334       308.000
  5  1.86011       302.500
  6  1.86702       297.000
  7  1.87408       291.500
  8  1.88128       286.000
  9  1.88864       280.500
 10  1.89616       275.000
 11  1.90385       269.500
 12  1.91170       264.000
 13  1.91972       258.500
 14  1.92793       253.000
 15  1.93633       247.500
 16  1.94491       242.000
 17  1.95370       236.500
 18  1.96269       231.000
 19  1.97190       225.500
 20  1.98133       220.000
 21  1.99010       215.000
 22  1.99907       210.000
 23  2.00824       205.000
 24  2.01763       200.000
 25  2.02723       195.000
 26  2.03706       190.000
 27  2.04713       185.000
 28  2.05745       180.000
 29  2.06802       175.000
 30  2.07886       170.000
 31  2.08998       165.000
 32  2.10139       160.000
 33  2.11194       155.500
 34  2.12273       151.000
 35  2.13380       146.500
 36  2.14516       142.000
 37  2.15682       137.500
 38  2.16880       133.000
 39  2.18112       128.500
 40  2.19380       124.000
 41  2.20539       120.000
 42  2.21729       116.000
 43  2.22954       112.000
 44  2.24214       108.000
 45  2.25513       104.000
 46  2.26685       100.500
 47  2.27716        97.500
 48  2.28595        95.000
 49  2.29493        92.500
 50  2.30411        90.000
 51  2.31350        87.500
 52  2.32312        85.000
 53  2.33298        82.500
 54  2.34309        80.000
 55  2.35347        77.500
 56  2.36413        75.000
 57  2.37510        72.500
 58  2.38639        70.000
 59  2.39568        68.000
 60  2.40520        66.000
 61  2.41496        64.000
 62  2.42499        62.000
 63  2.43635        59.800
 64  2.44698        57.800
 65  2.45794        55.800
 66  2.46925        53.800
 67  2.48092        51.800
 68  2.49176        50.000
 69  2.50294        48.200
 70  2.51448        46.400
 71  2.52642        44.600
 72  2.53877        42.800
 73  2.55157        41.000
 74  2.56412        39.300
 75  2.57635        37.700
 76  2.58903        36.100
 77  2.60220        34.500
 78  2.61503        33.000
 79  2.62836        31.500
 80  2.64225        30.000
 81  2.65578        28.600
 82  2.66988        27.200
 83  2.68357        25.900
 84  2.69788        24.600
 85  2.71289        23.300
 86  2.72745        22.100
 87  2.74147        21.000
 88  2.75349        20.100
 89  2.76319        19.400
 90  2.77251        18.750
 91  2.78216        18.100
 92  2.79217        17.450
 93  2.80256        16.800
 94  2.81255        16.200
 95  2.82293        15.600
 96  2.83375        15.000
 97  2.84409        14.450
 98  2.85488        13.900
 99  2.86615        13.350
100  2.87688        12.850
101  2.88809        12.350
102  2.89986        11.850
103  2.91222        11.350
104  2.92394        10.900
105  2.93624        10.450
106  2.94923        10.000
107  2.96296         9.550
108  2.97589         9.150
109  2.98954         8.750
110  3.00403         8.350
111  3.01946         7.950
112  3.03385         7.600
113  3.04912         7.250
114  3.06543         6.900
115  3.08289         6.550
116  3.10169         6.200
117  3.12141         5.860
118  3.14148         5.540
119  3.16185         5.240
120  3.18391         4.940
121  3.20634         4.660
122  3.23075         4.380
123  3.25559         4.120
124  3.27638         3.920
125  3.29525         3.750
126  3.31543         3.580
127  3.33711         3.410
128  3.35908         3.250
129  3.38272         3.090
130  3.40670         2.940
131  3.43259         2.790
132  3.46073         2.640
133  3.48936         2.500
134  3.52052         2.360
135  3.55219         2.230
136  3.58678         2.100
137  3.62491         1.970
138  3.66388         1.850
139  3.70337         1.740
140  3.74720         1.630
141  3.79656         1.520
142  3.85205         1.410
143  3.85790         1.400
