Sensor Model:   CX-1050-CU-HT-1.4L
Serial Number:  X86022
Data Format:    4      (Log Ohms/Kelvin)
SetPoint Limit: 325.0      (Kelvin)
Temperature coefficient:  1 (Negative)
Number of Breakpoints:   143

No.   Units      Temperature (K)

  1  1.82837       325.000
  2  1.83539       319.000
  3  1.84197       313.500
  4  1.84867       308.000
  5  1.85551       302.500
  6  1.86250       297.000
  7  1.86963       291.500
  8  1.87691       286.000
  9  1.88435       280.500
 10  1.89195       275.000
 11  1.89972       269.500
 12  1.90766       264.000
 13  1.91577       258.500
 14  1.92407       253.000
 15  1.93256       247.500
 16  1.94125       242.000
 17  1.95013       236.500
 18  1.95923       231.000
 19  1.96855       225.500
 20  1.97722       220.500
 21  1.98607       215.500
 22  1.99513       210.500
 23  2.00440       205.500
 24  2.01388       200.500
 25  2.02358       195.500
 26  2.03351       190.500
 27  2.04369       185.500
 28  2.05411       180.500
 29  2.06480       175.500
 30  2.07576       170.500
 31  2.08700       165.500
 32  2.09855       160.500
 33  2.10921       156.000
 34  2.12013       151.500
 35  2.13132       147.000
 36  2.14281       142.500
 37  2.15461       138.000
 38  2.16672       133.500
 39  2.17918       129.000
 40  2.19200       124.500
 41  2.20373       120.500
 42  2.21577       116.500
 43  2.22816       112.500
 44  2.24091       108.500
 45  2.25405       104.500
 46  2.26762       100.500
 47  2.27811        97.500
 48  2.28704        95.000
 49  2.29617        92.500
 50  2.30551        90.000
 51  2.31507        87.500
 52  2.32486        85.000
 53  2.33490        82.500
 54  2.34520        80.000
 55  2.35576        77.500
 56  2.36661        75.000
 57  2.37778        72.500
 58  2.38928        70.000
 59  2.39875        68.000
 60  2.40844        66.000
 61  2.41839        64.000
 62  2.42862        62.000
 63  2.44019        59.800
 64  2.45104        57.800
 65  2.46222        55.800
 66  2.47375        53.800
 67  2.48566        51.800
 68  2.49673        50.000
 69  2.50814        48.200
 70  2.51992        46.400
 71  2.53210        44.600
 72  2.54472        42.800
 73  2.55780        41.000
 74  2.57062        39.300
 75  2.58312        37.700
 76  2.59608        36.100
 77  2.60955        34.500
 78  2.62269        33.000
 79  2.63634        31.500
 80  2.65056        30.000
 81  2.66442        28.600
 82  2.67888        27.200
 83  2.69292        25.900
 84  2.70759        24.600
 85  2.72299        23.300
 86  2.73794        22.100
 87  2.75233        21.000
 88  2.76466        20.100
 89  2.77463        19.400
 90  2.78420        18.750
 91  2.79411        18.100
 92  2.80439        17.450
 93  2.81424        16.850
 94  2.82446        16.250
 95  2.83510        15.650
 96  2.84526        15.100
 97  2.85583        14.550
 98  2.86684        14.000
 99  2.87833        13.450
100  2.88927        12.950
101  2.90071        12.450
102  2.91270        11.950
103  2.92530        11.450
104  2.93724        11.000
105  2.94977        10.550
106  2.96299        10.100
107  2.97695         9.650
108  2.99010         9.250
109  3.00397         8.850
110  3.01869         8.450
111  3.03435         8.050
112  3.05107         7.650
113  3.06672         7.300
114  3.08338         6.950
115  3.10124         6.600
116  3.12044         6.250
117  3.14121         5.900
118  3.16175         5.580
119  3.18261         5.280
120  3.20518         4.980
121  3.22813         4.700
122  3.25308         4.420
123  3.27847         4.160
124  3.30080         3.950
125  3.32129         3.770
126  3.34207         3.600
127  3.36434         3.430
128  3.38691         3.270
129  3.41120         3.110
130  3.43582         2.960
131  3.46239         2.810
132  3.49128         2.660
133  3.52066         2.520
134  3.55264         2.380
135  3.58516         2.250
136  3.62067         2.120
137  3.65981         1.990
138  3.69978         1.870
139  3.74021         1.760
140  3.78496         1.650
141  3.83519         1.540
142  3.89180         1.430
143  3.90913         1.400
