Sensor Model:   CX-1050-SD-HT-1.4M
Serial Number:  X92364
Data Format:    4      (Log Ohms/Kelvin)
SetPoint Limit: 420.0      (Kelvin)
Temperature coefficient:  1 (Negative)
Number of Breakpoints:   156

No.   Units      Temperature (K)

  1  1.79616       420.000
  2  1.80449       411.000
  3  1.81258       402.500
  4  1.82089       394.000
  5  1.82943       385.500
  6  1.83823       377.000
  7  1.84727       368.500
  8  1.85659       360.000
  9  1.86619       351.500
 10  1.87549       343.500
 11  1.88506       335.500
 12  1.89491       327.500
 13  1.90314       321.000
 14  1.91025       315.500
 15  1.91750       310.000
 16  1.92490       304.500
 17  1.93246       299.000
 18  1.94017       293.500
 19  1.94805       288.000
 20  1.95609       282.500
 21  1.96431       277.000
 22  1.97271       271.500
 23  1.98129       266.000
 24  1.99007       260.500
 25  1.99904       255.000
 26  2.00821       249.500
 27  2.01760       244.000
 28  2.02722       238.500
 29  2.03706       233.000
 30  2.04621       228.000
 31  2.05557       223.000
 32  2.06514       218.000
 33  2.07492       213.000
 34  2.08494       208.000
 35  2.09519       203.000
 36  2.10568       198.000
 37  2.11642       193.000
 38  2.12742       188.000
 39  2.13870       183.000
 40  2.15026       178.000
 41  2.16212       173.000
 42  2.17429       168.000
 43  2.18553       163.500
 44  2.19703       159.000
 45  2.20883       154.500
 46  2.22093       150.000
 47  2.23335       145.500
 48  2.24610       141.000
 49  2.25920       136.500
 50  2.27268       132.000
 51  2.28656       127.500
 52  2.29925       123.500
 53  2.31229       119.500
 54  2.32570       115.500
 55  2.33951       111.500
 56  2.35374       107.500
 57  2.36843       103.500
 58  2.37979       100.500
 59  2.38945        98.000
 60  2.39933        95.500
 61  2.40943        93.000
 62  2.41976        90.500
 63  2.43034        88.000
 64  2.44118        85.500
 65  2.45229        83.000
 66  2.46369        80.500
 67  2.47541        78.000
 68  2.48745        75.500
 69  2.49984        73.000
 70  2.51004        71.000
 71  2.52048        69.000
 72  2.53119        67.000
 73  2.54218        65.000
 74  2.55348        63.000
 75  2.56510        61.000
 76  2.57706        59.000
 77  2.58938        57.000
 78  2.60210        55.000
 79  2.61523        53.000
 80  2.62745        51.200
 81  2.64003        49.400
 82  2.65304        47.600
 83  2.66648        45.800
 84  2.68039        44.000
 85  2.69482        42.200
 86  2.70811        40.600
 87  2.72186        39.000
 88  2.73613        37.400
 89  2.75095        35.800
 90  2.76540        34.300
 91  2.78042        32.800
 92  2.79606        31.300
 93  2.81129        29.900
 94  2.82716        28.500
 95  2.84376        27.100
 96  2.85989        25.800
 97  2.87677        24.500
 98  2.89313        23.300
 99  2.91028        22.100
100  2.92835        20.900
101  2.94103        20.100
102  2.95165        19.450
103  2.96264        18.800
104  2.97402        18.150
105  2.98583        17.500
106  2.99714        16.900
107  3.00889        16.300
108  3.02111        15.700
109  3.03384        15.100
110  3.04603        14.550
111  3.05873        14.000
112  3.07201        13.450
113  3.08465        12.950
114  3.09785        12.450
115  3.11170        11.950
116  3.12626        11.450
117  3.14005        11.000
118  3.15453        10.550
119  3.16981        10.100
120  3.18596         9.650
121  3.20117         9.250
122  3.21724         8.850
123  3.23430         8.450
124  3.25246         8.050
125  3.27186         7.650
126  3.29002         7.300
127  3.30937         6.950
128  3.33012         6.600
129  3.35245         6.250
130  3.37662         5.900
131  3.39902         5.600
132  3.42317         5.300
133  3.44939         5.000
134  3.47604         4.720
135  3.50505         4.440
136  3.53460         4.180
137  3.56061         3.970
138  3.58315         3.800
139  3.60726         3.630
140  3.63316         3.460
141  3.65942         3.300
142  3.68769         3.140
143  3.71635         2.990
144  3.74730         2.840
145  3.78096         2.690
146  3.81521         2.550
147  3.85250         2.410
148  3.89043         2.280
149  3.93185         2.150
150  3.97751         2.020
151  4.02413         1.900
152  4.07128         1.790
153  4.12340         1.680
154  4.18186         1.570
155  4.24171         1.470
156  4.28808         1.400
