Sensor Model:   CX-1050-AA-1.4L
Serial Number:  X94977
Data Format:    4      (Log Ohms/Kelvin)
SetPoint Limit: 325.0      (Kelvin)
Temperature coefficient:  1 (Negative)
Number of Breakpoints:   145

No.   Units      Temperature (K)

  1  1.77898       325.000
  2  1.78533       319.000
  3  1.79127       313.500
  4  1.79734       308.000
  5  1.80353       302.500
  6  1.80984       297.000
  7  1.81629       291.500
  8  1.82288       286.000
  9  1.82961       280.500
 10  1.83648       275.000
 11  1.84351       269.500
 12  1.85069       264.000
 13  1.85803       258.500
 14  1.86553       253.000
 15  1.87321       247.500
 16  1.88106       242.000
 17  1.88910       236.500
 18  1.89733       231.000
 19  1.90576       225.500
 20  1.91360       220.500
 21  1.92161       215.500
 22  1.92981       210.500
 23  1.93819       205.500
 24  1.94678       200.500
 25  1.95556       195.500
 26  1.96456       190.500
 27  1.97379       185.500
 28  1.98324       180.500
 29  1.99294       175.500
 30  2.00289       170.500
 31  2.01208       166.000
 32  2.02148       161.500
 33  2.03113       157.000
 34  2.04102       152.500
 35  2.05117       148.000
 36  2.06159       143.500
 37  2.07231       139.000
 38  2.08332       134.500
 39  2.09466       130.000
 40  2.10503       126.000
 41  2.11568       122.000
 42  2.12664       118.000
 43  2.13792       114.000
 44  2.14954       110.000
 45  2.16153       106.000
 46  2.17393       102.000
 47  2.18352        99.000
 48  2.19169        96.500
 49  2.20006        94.000
 50  2.20862        91.500
 51  2.21739        89.000
 52  2.22638        86.500
 53  2.23560        84.000
 54  2.24508        81.500
 55  2.25482        79.000
 56  2.26483        76.500
 57  2.27307        74.500
 58  2.28150        72.500
 59  2.29015        70.500
 60  2.29902        68.500
 61  2.30814        66.500
 62  2.31751        64.500
 63  2.32714        62.500
 64  2.33707        60.500
 65  2.34678        58.600
 66  2.35732        56.600
 67  2.36821        54.600
 68  2.37833        52.800
 69  2.38877        51.000
 70  2.39955        49.200
 71  2.41070        47.400
 72  2.42225        45.600
 73  2.43422        43.800
 74  2.44526        42.200
 75  2.45667        40.600
 76  2.46850        39.000
 77  2.48078        37.400
 78  2.49355        35.800
 79  2.50601        34.300
 80  2.51897        32.800
 81  2.53249        31.300
 82  2.54565        29.900
 83  2.55939        28.500
 84  2.57272        27.200
 85  2.58665        25.900
 86  2.60125        24.600
 87  2.61540        23.400
 88  2.63024        22.200
 89  2.64589        21.000
 90  2.65825        20.100
 91  2.66823        19.400
 92  2.67783        18.750
 93  2.68777        18.100
 94  2.69809        17.450
 95  2.70799        16.850
 96  2.71826        16.250
 97  2.72896        15.650
 98  2.73918        15.100
 99  2.74981        14.550
100  2.76089        14.000
101  2.77247        13.450
102  2.78350        12.950
103  2.79503        12.450
104  2.80713        11.950
105  2.81984        11.450
106  2.83189        11.000
107  2.84453        10.550
108  2.85787        10.100
109  2.87197         9.650
110  2.88523         9.250
111  2.89922         8.850
112  2.91406         8.450
113  2.92984         8.050
114  2.94668         7.650
115  2.96245         7.300
116  2.97922         6.950
117  2.99720         6.600
118  3.01653         6.250
119  3.03742         5.900
120  3.05809         5.580
121  3.07907         5.280
122  3.10177         4.980
123  3.12484         4.700
124  3.14992         4.420
125  3.17542         4.160
126  3.19783         3.950
127  3.21839         3.770
128  3.23922         3.600
129  3.26152         3.430
130  3.28411         3.270
131  3.30838         3.110
132  3.33464         2.950
133  3.36135         2.800
134  3.38834         2.660
135  3.41761         2.520
136  3.44957         2.380
137  3.48206         2.250
138  3.51760         2.120
139  3.55678         1.990
140  3.59673         1.870
141  3.64083         1.750
142  3.68576         1.640
143  3.73560         1.530
144  3.78680         1.430
145  3.80409         1.400

