Sensor Model:   CX-1050-AA-1.4L
Serial Number:  X94978
Data Format:    4      (Log Ohms/Kelvin)
SetPoint Limit: 325.0      (Kelvin)
Temperature coefficient:  1 (Negative)
Number of Breakpoints:   147

No.   Units      Temperature (K)

  1  1.87838       325.000
  2  1.88525       319.000
  3  1.89167       313.500
  4  1.89823       308.000
  5  1.90492       302.500
  6  1.91175       297.000
  7  1.91873       291.500
  8  1.92586       286.000
  9  1.93313       280.500
 10  1.94057       275.000
 11  1.94817       269.500
 12  1.95593       264.000
 13  1.96386       258.500
 14  1.97198       253.000
 15  1.98028       247.500
 16  1.98876       242.000
 17  1.99745       236.500
 18  2.00634       231.000
 19  2.01545       225.500
 20  2.02392       220.500
 21  2.03258       215.500
 22  2.04144       210.500
 23  2.05051       205.500
 24  2.05979       200.500
 25  2.06929       195.500
 26  2.07902       190.500
 27  2.08900       185.500
 28  2.09923       180.500
 29  2.10973       175.500
 30  2.12050       170.500
 31  2.13045       166.000
 32  2.14064       161.500
 33  2.15108       157.000
 34  2.16180       152.500
 35  2.17280       148.000
 36  2.18411       143.500
 37  2.19573       139.000
 38  2.20768       134.500
 39  2.21999       130.000
 40  2.23125       126.000
 41  2.24282       122.000
 42  2.25474       118.000
 43  2.26701       114.000
 44  2.27967       110.000
 45  2.29274       106.000
 46  2.30456       102.500
 47  2.31322       100.000
 48  2.32207        97.500
 49  2.33112        95.000
 50  2.34039        92.500
 51  2.34989        90.000
 52  2.35962        87.500
 53  2.36961        85.000
 54  2.37987        82.500
 55  2.39042        80.000
 56  2.40127        77.500
 57  2.41020        75.500
 58  2.41934        73.500
 59  2.42871        71.500
 60  2.43833        69.500
 61  2.44822        67.500
 62  2.45838        65.500
 63  2.46883        63.500
 64  2.47960        61.500
 65  2.49126        59.400
 66  2.50158        57.600
 67  2.51219        55.800
 68  2.52314        54.000
 69  2.53444        52.200
 70  2.54611        50.400
 71  2.55819        48.600
 72  2.57069        46.800
 73  2.58365        45.000
 74  2.59560        43.400
 75  2.60796        41.800
 76  2.62078        40.200
 77  2.63408        38.600
 78  2.64791        37.000
 79  2.66141        35.500
 80  2.67544        34.000
 81  2.69008        32.500
 82  2.70434        31.100
 83  2.71920        29.700
 84  2.73475        28.300
 85  2.74988        27.000
 86  2.76571        25.700
 87  2.78106        24.500
 88  2.79714        23.300
 89  2.81408        22.100
 90  2.83046        21.000
 91  2.84455        20.100
 92  2.85597        19.400
 93  2.86695        18.750
 94  2.87834        18.100
 95  2.89018        17.450
 96  2.90155        16.850
 97  2.91337        16.250
 98  2.92568        15.650
 99  2.93745        15.100
100  2.94971        14.550
101  2.96252        14.000
102  2.97471        13.500
103  2.98743        13.000
104  3.00078        12.500
105  3.01478        12.000
106  3.02953        11.500
107  3.04351        11.050
108  3.05821        10.600
109  3.07373        10.150
110  3.09016         9.700
111  3.10564         9.300
112  3.12199         8.900
113  3.13935         8.500
114  3.15785         8.100
115  3.17510         7.750
116  3.19342         7.400
117  3.21300         7.050
118  3.23397         6.700
119  3.25656         6.350
120  3.27742         6.050
121  3.29898         5.760
122  3.32303         5.460
123  3.34908         5.160
124  3.37553         4.880
125  3.40427         4.600
126  3.43345         4.340
127  3.46531         4.080
128  3.49214         3.880
129  3.51654         3.710
130  3.54269         3.540
131  3.56915         3.380
132  3.59758         3.220
133  3.62832         3.060
134  3.65955         2.910
135  3.69109         2.770
136  3.72525         2.630
137  3.76251         2.490
138  3.80034         2.360
139  3.84166         2.230
140  3.88717         2.100
141  3.93352         1.980
142  3.98451         1.860
143  4.04114         1.740
144  4.09895         1.630
145  4.15722         1.530
146  4.21593         1.440
147  4.24507         1.400
