Sensor	Model:	CX-1050-TTO		
Serial	Number:	XTTO191		
Data	Format:	4	(Log	Ohms/Kelvin)
SetPoint	Limit:	300	(Kelvin)	
Temperature	coefficient:	1	(Negative)	
Number	of	Breakpoints:	148	

No.	Units	Temperature	(K)	

1	1.68340	300.000		
2	1.69632	289.626		
3	1.70923	279.611		
4	1.72211	269.942		
5	1.73498	260.608		
6	1.74784	251.596		
7	1.76069	242.896		
8	1.77354	234.497		
9	1.78637	226.388		
10	1.79920	218.560		
11	1.81203	211.002		
12	1.82486	203.706		
13	1.83769	196.662		
14	1.85052	189.861		
15	1.86336	183.296		
16	1.87619	176.958		
17	1.88903	170.838		
18	1.90188	164.931		
19	1.91473	159.228		
20	1.92758	153.722		
21	1.94044	148.406		
22	1.95331	143.274		
23	1.96618	138.320		
24	1.97906	133.537		
25	1.99195	128.919		
26	2.00484	124.461		
27	2.01774	120.157		
28	2.03064	116.002		
29	2.04355	111.991		
30	2.05646	108.119		
31	2.06938	104.380		
32	2.08230	100.770		
33	2.09522	97.286		
34	2.10815	93.922		
35	2.12108	90.674		
36	2.13401	87.539		
37	2.14694	84.511		
38	2.15988	81.589		
39	2.17281	78.768		
40	2.18575	76.044		
41	2.19868	73.414		
42	2.21161	70.876		
43	2.22454	68.425		
44	2.23746	66.059		
45	2.25039	63.775		
46	2.26331	61.569		
47	2.27622	59.440		
48	2.28913	57.385		
49	2.30204	55.401		
50	2.31494	53.485		
51	2.32783	51.635		
52	2.34073	49.850		
53	2.35361	48.126		
54	2.36649	46.462		
55	2.37937	44.855		
56	2.39223	43.304		
57	2.40510	41.807		
58	2.41796	40.361		
59	2.43082	38.965		
60	2.44367	37.618		
61	2.45652	36.317		
62	2.46937	35.061		
63	2.48222	33.849		
64	2.49507	32.678		
65	2.50792	31.548		
66	2.52077	30.458		
67	2.53363	29.404		
68	2.54649	28.388		
69	2.55936	27.406		
70	2.57225	26.458		
71	2.58514	25.543		
72	2.59805	24.660		
73	2.61097	23.807		
74	2.62392	22.984		
75	2.63689	22.189		
76	2.64988	21.422		
77	2.66291	20.681		
78	2.67597	19.966		
79	2.68906	19.276		
80	2.70219	18.609		
81	2.71537	17.966		
82	2.72860	17.344		
83	2.74188	16.745		
84	2.75522	16.166		
85	2.76863	15.607		
86	2.78210	15.067		
87	2.79565	14.546		
88	2.80928	14.043		
89	2.82300	13.557		
90	2.83681	13.089		
91	2.85072	12.636		
92	2.86474	12.199		
93	2.87887	11.777		
94	2.89312	11.370		
95	2.90751	10.977		
96	2.92203	10.597		
97	2.93671	10.231		
98	2.95153	9.877		
99	2.96652	9.535		
100	2.98169	9.206		
101	2.99704	8.887		
102	3.01259	8.580		
103	3.02834	8.283		
104	3.04431	7.997		
105	3.06050	7.720		
106	3.07694	7.453		
107	3.09362	7.196		
108	3.11057	6.947		
109	3.12779	6.707		
110	3.14531	6.475		
111	3.16312	6.251		
112	3.18126	6.035		
113	3.19972	5.826		
114	3.21853	5.625		
115	3.23770	5.430		
116	3.25724	5.242		
117	3.27718	5.061		
118	3.29753	4.886		
119	3.31830	4.717		
120	3.33952	4.554		
121	3.36119	4.396		
122	3.38334	4.244		
123	3.40599	4.098		
124	3.42916	3.956		
125	3.45286	3.819		
126	3.47712	3.687		
127	3.50195	3.560		
128	3.52738	3.437		
129	3.55343	3.318		
130	3.58012	3.203		
131	3.60747	3.092		
132	3.63551	2.985		
133	3.66425	2.882		
134	3.69373	2.782		
135	3.72397	2.686		
136	3.75499	2.593		
137	3.78682	2.504		
138	3.81948	2.417		
139	3.85300	2.333		
140	3.88741	2.253		
141	3.92274	2.175		
142	3.95901	2.100		
143	3.99625	2.027		
144	4.03450	1.957		
145	4.07377	1.889		
146	4.11411	1.824		
147	4.15555	1.761		
148	4.19810	1.700		
