Sensor	Model:	CX-1050-TTO		
Serial	Number:	XTTO133		
Data	Format:	4	(Log	Ohms/Kelvin)
SetPoint	Limit:	300	(Kelvin)	
Temperature	coefficient:	1	(Negative)	
Number	of	Breakpoints:	148	

No.	Units	Temperature	(K)									

1	1.70965	300.000		
2	1.72205	289.626		
3	1.73447	279.611		
4	1.74691	269.942		
5	1.75936	260.608		
6	1.77184	251.596		
7	1.78433	242.896		
8	1.79683	234.497		
9	1.80936	226.388		
10	1.82190	218.560		
11	1.83446	211.002		
12	1.84703	203.706		
13	1.85961	196.662		
14	1.87221	189.861		
15	1.88483	183.296		
16	1.89745	176.958		
17	1.91008	170.838		
18	1.92273	164.931		
19	1.93538	159.228		
20	1.94805	153.722		
21	1.96071	148.406		
22	1.97339	143.274		
23	1.98607	138.320		
24	1.99876	133.537		
25	2.01145	128.919		
26	2.02414	124.461		
27	2.03683	120.157		
28	2.04953	116.002		
29	2.06222	111.991		
30	2.07491	108.119		
31	2.08760	104.380		
32	2.10029	100.770		
33	2.11297	97.286		
34	2.12565	93.922		
35	2.13832	90.674		
36	2.15098	87.539		
37	2.16364	84.511		
38	2.17629	81.589		
39	2.18893	78.768		
40	2.20156	76.044		
41	2.21418	73.414		
42	2.22679	70.876		
43	2.23940	68.425		
44	2.25198	66.059		
45	2.26456	63.775		
46	2.27713	61.569		
47	2.28968	59.440		
48	2.30223	57.385		
49	2.31476	55.401		
50	2.32728	53.485		
51	2.33979	51.635		
52	2.35228	49.850		
53	2.36477	48.126		
54	2.37724	46.462		
55	2.38971	44.855		
56	2.40217	43.304		
57	2.41462	41.807		
58	2.42706	40.361		
59	2.43949	38.965		
60	2.45193	37.618		
61	2.46435	36.317		
62	2.47678	35.061		
63	2.48920	33.849		
64	2.50163	32.678		
65	2.51406	31.548		
66	2.52649	30.458		
67	2.53893	29.404		
68	2.55138	28.388		
69	2.56384	27.406		
70	2.57632	26.458		
71	2.58881	25.543		
72	2.60133	24.660		
73	2.61386	23.807		
74	2.62643	22.984		
75	2.63902	22.189		
76	2.65165	21.422		
77	2.66432	20.681		
78	2.67703	19.966		
79	2.68978	19.276		
80	2.70258	18.609		
81	2.71544	17.966		
82	2.72836	17.344		
83	2.74135	16.745		
84	2.75440	16.166		
85	2.76753	15.607		
86	2.78074	15.067		
87	2.79404	14.546		
88	2.80743	14.043		
89	2.82092	13.557		
90	2.83452	13.089		
91	2.84823	12.636		
92	2.86206	12.199		
93	2.87602	11.777		
94	2.89011	11.370		
95	2.90435	10.977		
96	2.91873	10.597		
97	2.93328	10.231		
98	2.94799	9.877		
99	2.96288	9.535		
100	2.97796	9.206		
101	2.99323	8.887		
102	3.00871	8.580		
103	3.02440	8.283		
104	3.04031	7.997		
105	3.05646	7.720		
106	3.07286	7.453		
107	3.08952	7.196		
108	3.10644	6.947		
109	3.12365	6.707		
110	3.14114	6.475		
111	3.15894	6.251		
112	3.17706	6.035		
113	3.19551	5.826		
114	3.21431	5.625		
115	3.23346	5.430		
116	3.25298	5.242		
117	3.27289	5.061		
118	3.29319	4.886		
119	3.31392	4.717		
120	3.33507	4.554		
121	3.35667	4.396		
122	3.37873	4.244		
123	3.40127	4.098		
124	3.42430	3.956		
125	3.44784	3.819		
126	3.47192	3.687		
127	3.49654	3.560		
128	3.52173	3.437		
129	3.54750	3.318		
130	3.57387	3.203		
131	3.60086	3.092		
132	3.62850	2.985		
133	3.65679	2.882		
134	3.68577	2.782		
135	3.71545	2.686		
136	3.74586	2.593		
137	3.77701	2.504		
138	3.80893	2.417		
139	3.84163	2.333		
140	3.87516	2.253		
141	3.90951	2.175		
142	3.94473	2.100		
143	3.98083	2.027		
144	4.01784	1.957		
145	4.05578	1.889		
146	4.09468	1.824		
147	4.13457	1.761		
148	4.17547	1.700		
